time,amplitude,fluxintegral,power
6.25e-05,1.0000009441608,49.57728425006,0.91322011709396
0.000125,1.000003758693,49.577325686649,0.91322107398206
0.0001875,1.0000084169988,49.577382678695,0.91322233108451
0.00025,1.0000148939334,49.577450840478,0.91322381034527
0.0003125,1.0000231654666,49.577527066981,0.91322545614796
0.000375,1.0000332084137,49.577609137743,0.91322722793307
0.0004375,1.0000450002574,49.577695435914,0.91322909552554
0.0005,1.0000585190263,49.577784765064,0.91323103611738
0.0005625,1.0000737432117,49.577876227974,0.91323303225486
0.000625,1.0000906517093,49.577969144519,0.9132350704543
0.0006875,1.0001092237781,49.578062994738,0.91323714022409
0.00075,1.0001294390099,49.578157378533,0.91323923335698
0.0008125,1.0001512773072,49.578251986591,0.91324134340789
0.000875,1.0001747188661,49.578346579054,0.91324346530192
0.0009375,1.0001997441628,49.578440969637,0.91324559503627
0.001,1.0002263339435,49.578535013661,0.91324772945099
0.0010625,1.000254469215,49.578628598927,0.9132498660513
0.001125,1.0002841312384,49.578721638708,0.91325200286878
0.0011875,1.0003153015218,49.578814066376,0.91325413835341
0.00125,1.0003479618157,49.578905830977,0.91325627128484
0.0013125,1.0003820941079,49.57899689416,0.91325840070778
0.001375,1.0004176806187,49.579087227454,0.91326052587694
0.0014375,1.0004547037976,49.579176810231,0.91326264621442
0.0015,1.000493146319,49.579265628085,0.91326476127573
0.0015625,1.0005329910789,49.579353671538,0.91326687072274
0.001625,1.0005742211914,49.579440935027,0.9132689743021
0.0016875,1.0006168199857,49.579527416081,0.91327107182807
0.00175,1.0006607710031,49.579613114685,0.91327316316877
0.0018125,1.0007060579935,49.579698032753,0.91327524823519
0.001875,1.0007526649135,49.579782173724,0.91327732697244
0.0019375,1.0008005759224,49.579865542234,0.91327939935274
0.002,1.0008497753807,49.579948143852,0.91328146536984
0.0020625,1.0009002478465,49.580029984869,0.91328352503448
0.002125,1.0009519780732,49.580111072136,0.91328557837084
0.0021875,1.0010049510074,49.580191412927,0.91328762541369
0.00225,1.0010591517856,49.580271014836,0.91328966620607
0.0023125,1.0011145657322,49.580349885688,0.91329170079749
0.002375,1.0011711783571,49.580428033474,0.91329372924239
0.0024375,1.0012289753532,49.580505466299,0.91329575159909
0.0025,1.0012879425939,49.580582192334,0.91329776792876
0.0025625,1.0013480661311,49.580658219786,0.91329977829468
0.002625,1.0014093321927,49.580733556868,0.91330178276167
0.0026875,1.0014717271803,49.580808211782,0.9133037813956
0.00275,1.0015352376674,49.580882192695,0.91330577426303
0.0028125,1.0015998503964,49.580955507734,0.9133077614309
0.002875,1.0016655522773,49.581028164968,0.91330974296628
0.0029375,1.001732330385,49.581100172408,0.91331171893621
0.003,1.0018001719576,49.581171537997,0.91331368940767
0.0030625,1.0018690643939,49.581242269615,0.91331565444763
0.003125,1.0019389952515,49.581312374979,0.91331761411896
0.0031875,1.0020099522452,49.581381861785,0.91331956848996
0.00325,1.0020819232444,49.581450737721,0.91332151762548
0.0033125,1.0021548962712,49.581519010322,0.91332346158981
0.003375,1.002228859499,49.581586687036,0.91332540044672
0.0034375,1.00230380125,49.581653775233,0.91332733425932
0.0035,1.0023797099935,49.581720282196,0.91332926309007
0.0035625,1.0024565743442,49.581786215125,0.91333118700076
0.003625,1.0025343830599,49.581851581131,0.91333310605251
0.0036875,1.0026131250403,49.581916387246,0.91333502030571
0.00375,1.0026927893248,49.581980640413,0.91333692982009
0.0038125,1.0027733650907,49.582044347495,0.91333883465466
0.003875,1.0028548416516,49.58210751527,0.91334073486776
0.0039375,1.0029372084555,49.582170150436,0.91334263051703
0.004,1.0030204550836,49.582232259608,0.9133445216594
0.0040625,1.0031045712477,49.58229384932,0.91334640835115
0.004125,1.0031895467895,49.582354926028,0.91334829064787
0.0041875,1.0032753716783,49.582415496107,0.91335016860447
0.00425,1.0033620360097,49.582475565857,0.91335204227521
0.0043125,1.0034495300037,49.582535141498,0.91335391171366
0.004375,1.0035378440035,49.582594229175,0.91335577697279
0.0044375,1.0036269684738,49.582652834959,0.91335763810489
0.0045,1.003716893999,49.582710964845,0.91335949516162
0.0045625,1.003807612914,49.582768465508,0.91336134525194
0.004625,1.0038991111425,49.582825664012,0.91336319435121
0.0046875,1.0039913861759,49.582882241574,0.9133650365311
0.00475,1.0040844241249,49.582938367827,0.91336687485187
0.0048125,1.00417821611,49.582994212411,0.91336871240013
0.004875,1.0042727584659,49.583049448875,0.91337054310033
0.0049375,1.004368037513,49.583104250754,0.91337237008575
0.005,1.0044640447027,49.583158791298,0.91337419651184
0.0050625,1.0045607768129,49.583212736162,0.91337601615939
0.005125,1.0046582203664,49.583266262577,0.91337783223156
0.0051875,1.0047563671324,49.583319547256,0.91337964794994
0.00525,1.0048552143162,49.583372248253,0.913381456957
0.0053125,1.0049547486347,49.583424546351,0.91338326252308
0.005375,1.0050549621633,49.583476621597,0.91338506793339
0.0054375,1.0051558525186,49.583528124725,0.91338686669726
0.0055,1.0052574066043,49.583579239938,0.9133886621497
0.0055625,1.0053596167905,49.583630150486,0.9133904576371
0.005625,1.0054624810899,49.583680500063,0.91339224654067
0.0056875,1.0055659865858,49.58373047616,0.91339403225759
0.00575,1.0056701259321,49.583780265105,0.91339581819313
0.0058125,1.0057748975226,49.583829503821,0.91339759760523
0.005875,1.0058802886135,49.583878382959,0.91339937395089
0.0059375,1.0059862921318,49.583927091815,0.91340115069201
0.006,1.0060929068384,49.583975260792,0.91340292096793
0.0060625,1.0062001201558,49.584023083583,0.91340468829321
0.006125,1.0063079252737,49.584070752336,0.91340645618422
0.0061875,1.0064163213066,49.584117891182,0.9134082176662
0.00625,1.0065252958368,49.584164696744,0.9134099763091
0.0063125,1.006634842307,49.584211363966,0.91341173568208
0.006375,1.0067449601721,49.584257510796,0.91341348869972
0.0064375,1.0068556371683,49.584303336807,0.91341523898584
0.0065,1.0069668689778,49.584348845337,0.91341698657238
0.0065625,1.0070786473895,49.584394235408,0.91341873509752
0.006625,1.0071909722926,49.58443911732,0.91342047733603
0.0066875,1.0073038316191,49.584483694252,0.91342221697982
0.00675,1.0074172193661,49.584528167124,0.91342395771282
0.0068125,1.0075311357341,49.584572140657,0.91342569220901
0.006875,1.0076455687961,49.584615820599,0.91342742420904
0.0069375,1.0077605127715,49.584659410285,0.91342915744293
0.007,1.0078759681613,49.584702509118,0.91343088448801
0.0070625,1.0079919231732,49.584745325327,0.91343260913173
0.007125,1.0081083743282,49.584787861744,0.91343433140181
0.0071875,1.0082253140607,49.584830325417,0.91343605508941
0.00725,1.0083427432544,49.584872309042,0.91343777264903
0.0073125,1.0084606502894,49.584914024014,0.91343948792796
0.007375,1.0085790298735,49.584955678945,0.91344120475712
0.0074375,1.0086978831651,49.584996861625,0.91344291550258
0.0075,1.008817198668,49.585037785703,0.91344462405433
0.0075625,1.0089369734299,49.585078453694,0.91344633043741
0.007625,1.0090572002907,49.585119077664,0.91344803853866
0.0076875,1.0091778807595,49.585159239298,0.91344974061225
0.00775,1.0092990034972,49.585199155125,0.91345144060264
0.0078125,1.0094205658327,49.585238827495,0.91345313853348
0.007875,1.0095425608215,49.585278471136,0.91345483834242
0.0079375,1.0096649903064,49.585317661899,0.91345653217736
0.008,1.0097878430978,49.585356619026,0.91345822403429
0.0080625,1.0099111145879,49.585395558485,0.9134599178847
0.008125,1.0100348068588,49.585434051891,0.91346160580017
0.0081875,1.010158908828,49.585472320414,0.91346329181339
0.00825,1.010283418283,49.585510366133,0.91346497594571
0.0083125,1.0104083286317,49.585548408085,0.91346666221723
0.008375,1.0105336422617,49.585586012667,0.91346834260311
0.0084375,1.0106593482269,49.5856234035,0.91347002118296
0.0085,1.0107854445594,49.585660582527,0.91347169797694
0.0085625,1.0109119248548,49.585697771081,0.91347337704913
0.008625,1.0110387917913,49.585734530535,0.91347505028271
0.0086875,1.0111660345523,49.585771086832,0.91347672180184
0.00875,1.0112936491258,49.585807662293,0.91347839569969
0.0088125,1.0114216383986,49.585843814609,0.91348006379304
0.008875,1.0115499916468,49.585879771392,0.913481730238
0.0089375,1.011678707302,49.585915534355,0.91348339505266
0.009,1.0118077792662,49.585951328593,0.91348506237295
0.0090625,1.0119372106924,49.585986707218,0.91348672393153
0.009125,1.0120669909752,49.586021900014,0.91348838392549
0.0091875,1.0121971187589,49.586056908569,0.91349004237192
0.00925,1.0123275881089,49.586091959988,0.91349170344505
0.0093125,1.0124584024313,49.586126602969,0.91349335879734
0.009375,1.0125895512331,49.586161069357,0.9134950126648
0.0094375,1.0127210333612,49.586195360614,0.91349666506345
0.0095,1.012852843036,49.586229705754,0.91349832020389
0.0095625,1.0129849839047,49.586263649284,0.91349996966246
0.009625,1.0131174455808,49.586297425004,0.91350161771209
0.0096875,1.0132502271039,49.58633103426,0.91350326436781
0.00975,1.0133833228416,49.586364707872,0.91350491387469
0.0098125,1.0135167366706,49.586397986373,0.91350655773683
0.009875,1.0136504583056,49.586431105415,0.91350820026218
0.0099375,1.0137844869693,49.586464066234,0.91350984146487
0.01,1.0139188171696,49.586497101364,0.91351148562263
0.0100625,1.014053453001,49.586529747568,0.91351312417108
0.010125,1.0141883842747,49.586562242256,0.91351476145135
0.0101875,1.0143236103873,49.586594586555,0.91351639747668
0.01025,1.01445912598,49.586627014628,0.91351803655582
0.0103125,1.0145949353549,49.586659059662,0.91351967005942
0.010375,1.0147310284144,49.586690960731,0.91352130236009
0.0104375,1.0148674047209,49.586722718863,0.91352293347023
0.0105,1.0150040590421,49.58675456976,0.913524567728
0.0105625,1.0151409958776,49.586786043223,0.9135261964424
0.010625,1.0152782052164,49.586817379901,0.91352782401593
0.0106875,1.0154156867786,49.586848580728,0.91352945046018
0.01075,1.0155534354521,49.586879882866,0.91353108014117
0.0108125,1.0156914559246,49.586910812902,0.9135327043095
0.010875,1.0158297382673,49.586941612983,0.91353432739595
0.0109375,1.0159682823501,49.586972283949,0.91353594941138
0.011,1.0161070831754,49.587003064349,0.91353757474821
0.0110625,1.0162461456098,49.587033477724,0.91353919460164
0.011125,1.0163854598024,49.587063767636,0.91354081342931
0.0111875,1.0165250257658,49.58709393484,0.91354243124133
0.01125,1.0166648386112,49.587124219196,0.91354405245519
0.0113125,1.0168049033753,49.587154141361,0.91354566821359
0.011375,1.0169452102814,49.587183946235,0.91354728299955
0.0114375,1.0170857594777,49.587213634494,0.91354889682253
0.0115,1.0172265461787,49.587243447241,0.91355051412377
0.0115625,1.0173675755832,49.587272902396,0.91355212599617
0.011625,1.0175088379849,49.587302246131,0.91355373694687
0.0116875,1.0176503336609,49.587331479044,0.91355534698468
0.01175,1.0177920579241,49.587360843416,0.9135569605733
0.0118125,1.0179340161273,49.587389854576,0.91355856875851
0.011875,1.0180761986312,49.587418759897,0.91356017607026
0.0119375,1.0182186058356,49.587447559905,0.91356178251672
0.012,1.0183612356636,49.587476255835,0.91356338810864
0.0120625,1.018504083544,49.587505091422,0.9135649973366
0.012125,1.018647155012,49.587533578958,0.91356660119093
0.0121875,1.018790440507,49.587561967234,0.91356820422852
0.01225,1.0189339405739,49.587590256691,0.91356980645685
0.0123125,1.0190776507292,49.587618692039,0.91357141238606
0.012375,1.0192215766464,49.587646783265,0.91357301296465
0.0124375,1.0193657088239,49.58767478022,0.91357461276967
0.0125,1.0195100479166,49.587702683279,0.913576211808
0.0125625,1.0196545895242,49.587730738138,0.91357781460865
0.012625,1.0197993394516,49.58775845261,0.91357941208056
0.0126875,1.0199442882536,49.587786077552,0.91358100881987
0.01275,1.0200894366895,49.587813613278,0.91358260483296
0.0128125,1.0202347804382,49.587841306417,0.9135842046667
0.012875,1.0203803254298,49.587868662723,0.91358579919255
0.0129375,1.0205260622725,49.587895934007,0.91358739302475
0.013,1.020671991825,49.587923120524,0.91358898616921
0.0130625,1.0208181124099,49.587950223249,0.91359057863442
0.013125,1.0209644197998,49.587977489983,0.91359217498864
0.0131875,1.0211109200729,49.588004424069,0.91359376605936
0.01325,1.0212576039001,49.588031278442,0.9135953564822
0.0133125,1.0214044722577,49.588058053291,0.91359694626249
0.013375,1.0215515209889,49.588084997169,0.91359853998392
0.0134375,1.0216987562839,49.588111611592,0.91360012844077
0.0135,1.0218461688613,49.588138150334,0.91360171628461
0.0135625,1.0219937597862,49.588164613527,0.91360330352031
0.013625,1.0221415249688,49.588191250507,0.91360489474651
0.0136875,1.0222894707065,49.588217561065,0.91360648072609
0.01375,1.0224375877624,49.588243799771,0.91360806612579
0.0138125,1.0225858772864,49.588269966708,0.91360965095002
0.013875,1.0227343378545,49.588296062689,0.91361123520589
0.0139375,1.022882965456,49.58832233804,0.91361282351
0.014,1.0230317665147,49.588348290536,0.91361440658848
0.0140625,1.0231807318469,49.588374175687,0.91361598912588
0.014125,1.0233298627025,49.58839999352,0.91361757112619
0.0141875,1.0234791551309,49.588425994981,0.91361915721883
0.01425,1.0236286156516,49.588451676311,0.91362073810216
0.0143125,1.0237782351208,49.588477293722,0.91362231847407
0.014375,1.023928014864,49.588502847194,0.91362389833812
0.0144375,1.0240779509877,49.588528588321,0.91362548233622
0.0145,1.0242280501026,49.588554011909,0.91362706114052
0.0145625,1.0243783031026,49.588579374831,0.91362863946154
0.014625,1.0245287113855,49.588604677023,0.91363021730247
0.0146875,1.0246792737422,49.588629919161,0.91363179466924
0.01475,1.0248299863466,49.588655353678,0.91363337621875
0.0148125,1.0249808559172,49.588680473699,0.91363495259253
0.014875,1.0251318733926,49.58870553688,0.91363652851597
0.0149375,1.0252830402557,49.588730543112,0.91363810399188
0.015,1.0254343527312,49.588755745329,0.91363968368783
0.0150625,1.0255858176195,49.588780635381,0.91364125822218
0.015125,1.0257374258925,49.588805471502,0.91364283233138
0.0151875,1.0258891790979,49.588830253544,0.91364440601792
0.01525,1.0260410735085,49.588855234985,0.91364598395973
0.0153125,1.0261931160027,49.588879906473,0.91364755675333
0.015375,1.0263452975844,49.588904526794,0.91364912914572
0.0154375,1.0264976198625,49.588929095765,0.91365070113906
0.0155,1.026650081811,49.588953613943,0.91365227273823
0.0155625,1.0268026797599,49.588978335511,0.91365384863371
0.015625,1.0269554206801,49.589002749726,0.91365541939658
0.0156875,1.0271082956126,49.589027116023,0.91365698978619
0.01575,1.0272613062391,49.589051434179,0.91365855980437
0.0158125,1.0274144489326,49.589075958782,0.91366013415037
0.015875,1.0275677307342,49.589100178024,0.91366170337602
0.0159375,1.0277211427128,49.589124351824,0.91366327224983
0.016,1.0278746866054,49.589148479921,0.91366484077336
0.0160625,1.0280283614962,49.589172562804,0.9136664089509
0.016125,1.0281821638093,49.58919685569,0.91366798149272
0.0161875,1.0283361006686,49.589220845548,0.91366954892832
0.01625,1.0284901631762,49.589244792865,0.91367111603706
0.0163125,1.0286443531341,49.589268697347,0.91367268282018
0.016375,1.0287986670044,49.589292814557,0.91367425399564
0.0164375,1.0289531119743,49.58931663053,0.913675820076
0.0165,1.0291076791705,49.589340406173,0.91367738584866
0.0165625,1.0292623704443,49.589364141163,0.91367895131462
0.016625,1.0294171849789,49.589387835922,0.91368051647764
0.0166875,1.0295721192821,49.589411746573,0.91368208606535
0.01675,1.0297271806153,49.589435358082,0.91368365057075
0.0168125,1.0298823601347,49.589458931852,0.91368521479075
0.016875,1.0300376597498,49.589482467528,0.9136867787261
0.0169375,1.0301930760027,49.589506221525,0.91368834711106
0.017,1.0303486162113,49.589529677991,0.91368991042384
0.0170625,1.0305042715538,49.589553098694,0.91369147346837
0.017125,1.0306600439839,49.589576483253,0.91369303624514
0.0171875,1.0308159327731,49.589599832037,0.91369459875743
0.01725,1.0309719345041,49.589623401954,0.91369616574803
0.0173125,1.0311280565618,49.58964667622,0.91369772767806
0.017375,1.0312842901501,49.589669917039,0.91369928935974
0.0174375,1.0314406372752,49.589693124,0.91370085079334
0.0175,1.0315970945499,49.589716554262,0.91370241672741
0.0175625,1.0317536694104,49.589739690321,0.91370397761015
0.017625,1.0319103530798,49.5897627947,0.91370553825988
0.0176875,1.0320671476038,49.589785866965,0.91370709867663
0.01775,1.032224052333,49.589808907433,0.91370865886328
0.0178125,1.0323810639165,49.589832173702,0.91371022357581
0.017875,1.0325381898508,49.589855147459,0.91371178324755
0.0179375,1.0326954213817,49.589878091604,0.91371334270405
0.018,1.0328527606017,49.589901005677,0.91371490194515
0.0180625,1.0330102041874,49.58992414748,0.91371646573184
0.018125,1.0331677596809,49.589946998075,0.91371802448616
0.0181875,1.033325418345,49.589969820638,0.91371958303897
0.01825,1.0334831823079,49.589992614689,0.91372114138991
0.0183125,1.033641050991,49.590015380499,0.91372269954144
0.018375,1.0337990211027,49.590038376262,0.91372426226103
0.0184375,1.03395710024,49.590061082338,0.91372581995787
0.0185,1.0341152796851,49.590083762228,0.91372737746905
0.0185625,1.0342735616086,49.59010641543,0.91372893479406
0.018625,1.0344319427434,49.590129300303,0.91373049670461
0.0186875,1.0345904307274,49.590151896665,0.91373205360012
0.01875,1.034749016858,49.590174468254,0.91373361032225
0.0188125,1.0349077033378,49.590197014549,0.91373516687031
0.018875,1.0350664896512,49.590219535783,0.91373672324641
0.0189375,1.0352253725596,49.590242290662,0.91373828422794
0.019,1.0353843597504,49.590264758398,0.91373984020317
0.0190625,1.0355434425382,49.59028720301,0.9137413960192
0.019125,1.0357026231633,49.590309623959,0.91374295167516
0.0191875,1.0358618984088,49.590332280083,0.91374451195205
0.01925,1.0360212759991,49.590354650125,0.91374606722973
0.0193125,1.0361807472621,49.590376998308,0.91374762235919
0.019375,1.0363403144667,49.590399324075,0.91374917733943
0.0194375,1.036499977154,49.590421627621,0.91375073217223
0.0195,1.0366597321329,49.590444168094,0.91375229164351
0.0195625,1.0368195871718,49.590466423718,0.91375384612359
0.019625,1.036979533614,49.590488658956,0.91375540046809
0.0196875,1.0371395737622,49.590510873234,0.91375695467586
0.01975,1.0372997044446,49.5905333258,0.91375851353586
0.0198125,1.0374599334633,49.590555494476,0.91376006741116
0.019875,1.0376202521728,49.590577643899,0.91376162116072
0.0199375,1.0377806629019,49.590599773476,0.91376317478327
0.02,1.0379411652425,49.590621883372,0.91376472828031
0.0200625,1.0381017560452,49.590644233111,0.91376628644505
0.020125,1.0382624431523,49.590666300071,0.91376783963242
0.0201875,1.0384232179316,49.590688349093,0.91376939270534
0.02025,1.0385840827424,49.590710379571,0.9137709456624
0.0203125,1.0387450372023,49.590732391656,0.91377249850501
0.020375,1.0389060781834,49.590754645052,0.91377405602993
0.0204375,1.0390672135658,49.590776616727,0.91377560858458
0.0205,1.0392284347296,49.590798571705,0.91377716103545
0.0205625,1.0393897440628,49.590820509364,0.91377871338101
0.020625,1.0395511384534,49.590842689473,0.91378027042026
0.0206875,1.0397126258104,49.590864588683,0.91378182249501
0.02075,1.039874197523,49.590886472147,0.91378337447428
0.0208125,1.0400358560011,49.590908339233,0.91378492635643
0.020875,1.0401976009051,49.590930190063,0.9137864781426
0.0209375,1.040359429142,49.590952284628,0.91378803463514
0.021,1.040521348655,49.590974099243,0.91378958616962
0.0210625,1.040683350844,49.590995899217,0.91379113761808
0.021125,1.0408454381447,49.591017683905,0.91379268897878
0.0211875,1.0410076074784,49.591039713338,0.9137942450559
0.02125,1.0411698668146,49.591061463566,0.91379579618027
0.0213125,1.0413322075607,49.591083200006,0.91379734722607
0.021375,1.0414946321724,49.591104921999,0.91379889819144
0.0214375,1.0416571403483,49.591126629646,0.91380044907732
0.0215,1.0418197290266,49.591148583175,0.91380200469073
0.0215625,1.0419824062077,49.591170258356,0.91380355535732
