time,amplitude,fluxintegral,power
0.000195313,1.0000091134684,49.577419106487,0.9132230501541
0.000390626,1.0000359670914,49.577638876376,0.91322786354762
0.000585939,1.0000798610943,49.577906863365,0.91323372014385
0.000781252,1.0001401336913,49.578197411632,0.91324014204267
0.000976565,1.0002161616252,49.578493752352,0.91324680212882
0.001171878,1.000307352344,49.578787381264,0.91325352425978
0.001367191,1.0004131390654,49.579074609128,0.91326022582825
0.001562504,1.0005329780528,49.579354102083,0.91326687284084
0.001757817,1.0006663470616,49.579625564601,0.9132734539716
0.00195313,1.0008127442803,49.579889117053,0.91327996743876
0.002148443,1.0009716983904,49.580144313334,0.91328640184996
0.002343756,1.0011427249599,49.580391899005,0.91329276804971
0.002539069,1.0013253758883,49.580633139959,0.91329908676995
0.002734382,1.0015192611002,49.580866960309,0.91330533566989
0.002929695,1.0017239311295,49.581094042075,0.91331152463093
0.003125008,1.0019390032003,49.581314770296,0.91331765838507
0.003320321,1.0021640972371,49.581529432383,0.91332373988884
0.003515634,1.0023988479338,49.58173827599,0.9133297714408
0.003710947,1.0026429041756,49.581941529443,0.91333575506646
0.00390626,1.0028959284829,49.582139409067,0.91334169265188
0.004101573,1.0031575964774,49.582332121875,0.91334758599079
0.004296886,1.0034275963692,49.582519866657,0.91335343680204
0.004492199,1.0037056088538,49.582704106917,0.91335927021031
0.004687512,1.0039914046934,49.582882850985,0.91336504781655
0.004882825,1.0042846481543,49.583056888944,0.91337078218656
0.005078138,1.0045850926735,49.583226583747,0.91337647845588
0.005273451,1.0048924823917,49.583392164887,0.91338213927104
0.005468764,1.0052065713588,49.583553811945,0.91338776640372
0.005664077,1.0055271231498,49.583711683601,0.91339336129764
0.00585939,1.0058539104909,49.583865927773,0.91339892525424
0.006054703,1.0061867149034,49.584016685149,0.91340445949595
0.006250016,1.0065253263605,49.584164090502,0.91340996518866
0.006445329,1.0068695429582,49.584308273261,0.91341544345024
0.006640642,1.007219170599,49.584449357829,0.91342089535459
0.006835955,1.0075740226879,49.584587463815,0.91342632193396
0.007031268,1.0079339198405,49.584722706224,0.91343172418086
0.007226581,1.0082986638946,49.584856856037,0.913437133684
0.007421894,1.0086681661848,49.584987181193,0.91344249918064
0.007617207,1.0090421901956,49.585114583608,0.91344783595425
0.00781252,1.0094206083942,49.585239413416,0.9134531496375
0.008007833,1.0098032734553,49.585361851164,0.91345844265565
0.008203146,1.01019004374,49.585482016781,0.91346371633151
0.008398459,1.0105807830719,49.585600007275,0.91346897159762
0.008593772,1.0109753605293,49.585715909798,0.91347420923707
0.008789085,1.0113736502388,49.585829806104,0.91347942996484
0.008984398,1.0117755311801,49.585941774111,0.91348463445562
0.009179711,1.0121808869985,49.586051888506,0.91348982335388
0.009375024,1.0125896058237,49.586160221016,0.91349499727781
0.009570337,1.0130015800971,49.58626684058,0.91350015682128
0.00976565,1.0134167064041,49.586371813466,0.91350530255507
0.009960963,1.0138348853149,49.586475203384,0.9135104350279
0.010156276,1.0142560212296,49.586577071585,0.91351555476726
0.010351589,1.0146800222312,49.586677476956,0.91352066228028
0.010546902,1.0151067999426,49.586776476111,0.91352575805452
0.010742215,1.0155362394511,49.586876043853,0.91353087799029
0.010937528,1.015968348879,49.586972950152,0.91353596219547
0.011132841,1.0164029598532,49.587068169914,0.91354102775381
0.011328154,1.0168400267806,49.587162042624,0.91354608061321
0.011523467,1.0172794770387,49.587254714237,0.91355112303501
0.01171878,1.017721240803,49.587346263043,0.9135561560269
0.011914093,1.0181652509361,49.587436743157,0.9135611801655
0.012109406,1.0186114428886,49.587526199532,0.91356619587399
0.012304719,1.0190597545964,49.587614673034,0.91357120351534
0.012500032,1.0195101263861,49.587702202159,0.91357620342392
0.012695345,1.0199625008829,49.587788823658,0.9135811959163
0.012890658,1.0204168229226,49.587874572774,0.9135861812952
0.013085971,1.0208730394666,49.587959483362,0.91359115985116
0.013281284,1.0213310995203,49.588043587963,0.91359613186331
0.013476597,1.0217909540549,49.58812691786,0.91360109759996
0.01367191,1.0222525559322,49.588209503129,0.91360605731906
0.013867223,1.0227158598317,49.588291372688,0.9136110112686
0.014062536,1.0231808221815,49.58837255434,0.91361595968702
0.014257849,1.0236474010911,49.588453074819,0.91362090280358
0.014453162,1.0241155241509,49.588535004211,0.91362587856019
0.014648475,1.0245852490565,49.588614873579,0.91363082293721
0.014843788,1.0250564421772,49.588693690422,0.91363575385711
0.015039101,1.025529099863,49.588771787408,0.91364067740203
0.015234414,1.0260031877127,49.58884929234,0.91364559574053
0.015429727,1.0264786726573,49.588926262074,0.91365050971637
0.01562504,1.0269555229091,49.589002728767,0.9136554197235
0.015820353,1.0274337079102,49.589078715816,0.91366032600108
0.016015666,1.027913198289,49.589154243208,0.91366522873245
0.016210979,1.0283939658132,49.589229329323,0.9136701280783
0.016406292,1.0288759833461,49.589303991554,0.91367502418797
0.016601605,1.0293592248056,49.589378246532,0.91367991720333
0.016796918,1.029843665124,49.589452110218,0.91368480726025
0.016992231,1.030329280209,49.589525597951,0.91368969448917
0.017187544,1.0308160469073,49.589598724477,0.91369457901548
0.017382857,1.0313039429684,49.589671503976,0.91369946095972
0.01757817,1.0317929470106,49.589743950083,0.9137043404378
0.017773483,1.032283038488,49.589816075912,0.9137092175612
0.017968796,1.0327741976591,49.589887894074,0.91371409243711
0.018164109,1.0332664055556,49.589959416697,0.91371896516862
0.018359422,1.0337596106997,49.59003275155,0.91372387453328
0.018554735,1.0342538953513,49.590104328623,0.91372875477827
0.018750048,1.0347491429295,49.590175166596,0.9137336241541
0.018945361,1.0352453705299,49.590245593433,0.91373848878158
0.019140674,1.0357425626336,49.590315727577,0.9137433507748
0.019335987,1.0362407043364,49.590385615242,0.91374821089439
0.0195313,1.0367397813259,49.590455277802,0.9137530694441
0.019726613,1.0372397798565,49.590524728096,0.91375792657291
0.019921926,1.0377406867316,49.590593975905,0.9137627823763
0.020117239,1.0382424892803,49.590663029772,0.91376763693015
0.020312552,1.0387451753383,49.590731897629,0.9137724903021
0.020507865,1.039248733229,49.590800587008,0.91377734255547
0.020703178,1.0397531517447,49.59086910512,0.91378219375057
0.020898491,1.0402584201295,49.590937458893,0.91378704394521
0.021093804,1.0407645280618,49.591005654987,0.91379189319493
0.021289117,1.0412714656385,49.591073699806,0.91379674155315
0.02148443,1.041779223359,49.59114159951,0.91380158907122
0.021679743,1.0422877921101,49.591209360026,0.91380643579857
0.021875056,1.0427971631517,49.591276987055,0.91381128178271
0.022070369,1.0433073281025,49.591344486082,0.91381612706938
0.022265682,1.0438182789269,49.591411862381,0.91382097170257
0.022460995,1.0443299740976,49.59148123185,0.91382585467721
0.022656308,1.0448425077095,49.591548993888,0.91383070973288
0.022851621,1.0453557712152,49.591616167356,0.9138355551861
0.023046934,1.045869791658,49.59168307652,0.91384039714676
0.023242247,1.0463845625441,49.591749834903,0.91384523769356
0.02343756,1.0469000776557,49.591816483545,0.91385007754488
0.023632873,1.0474163310409,49.591883038692,0.91385491696105
0.023828186,1.0479333170008,49.59194950821,0.91385975604843
0.024023499,1.0484510300841,49.592015897073,0.9138645948612
0.024218812,1.0489694650751,49.592082209205,0.9138694334354
0.024414125,1.0494886169857,49.592148448088,0.91387427180038
0.024609438,1.0500084810471,49.592214616977,0.91387910998257
0.024804751,1.0505290527011,49.592280718971,0.91388394800684
0.025000064,1.051050327593,49.59234675704,0.91388878589689
0.025195377,1.0515723015636,49.59241273404,0.91389362367551
0.02539069,1.0520949706421,49.592478652718,0.91389846136455
0.025586003,1.0526183310392,49.592544515716,0.91390329898508
0.025781316,1.0531423791403,49.592610325577,0.91390813655733
0.025976629,1.0536671114992,49.592676084748,0.9139129741008
0.026171942,1.0541925248318,49.592741795583,0.91391781163424
0.026367255,1.0547186160101,49.59280746035,0.91392264917571
0.026562568,1.0552453479381,49.592875188727,0.91392752563659
0.026757881,1.0557728201429,49.592941383897,0.91393237484627
0.026953194,1.0563009275765,49.593007059639,0.91393721506036
0.027148507,1.0568297017952,49.593072537066,0.91394205235422
0.02734382,1.0573591403684,49.593137927003,0.91394688878093
0.027539133,1.057889240991,49.59320326803,0.9139517250369
0.027734446,1.0584200014792,49.59326857408,0.91395656136228
0.027929759,1.0589514197632,49.593333850807,0.91396139784436
0.028125072,1.059483493887,49.593399101069,0.91396623451904
0.028320385,1.0600162220013,49.593464326752,0.91397107140486
0.028515698,1.0605496023607,49.593529529379,0.91397590851431
0.028711011,1.0610836333195,49.593594710322,0.91398074585763
0.028906324,1.0616183133281,49.593659870869,0.9139855834441
0.029101637,1.06215364093,49.593725012247,0.91399042128246
0.02929695,1.0626896147577,49.593790135636,0.91399525938104
0.029492263,1.0632262335302,49.59385524217,0.91400009774785
0.029687576,1.0637634960494,49.593920332939,0.9140049363906
0.029882889,1.0643014011972,49.593985408994,0.9140097753167
0.030078202,1.064839947933,49.594050471346,0.91401461453329
0.030273515,1.0653791352901,49.59411552097,0.91401945404724
0.030468828,1.065918962374,49.594180558801,0.91402429386517
0.030664141,1.0664593940688,49.594247681961,0.91402917268198
0.030859454,1.0670005324916,49.594313312557,0.91403402468023
0.031054767,1.0675422740767,49.594378456961,0.91403886799865
0.03125008,1.068084652479,49.594443433366,0.91404370866758
0.031445393,1.0686276671244,49.594508350867,0.91404854871871
0.031640706,1.0691713174972,49.594573246776,0.91405338883535
0.031836019,1.0697156031388,49.594638133939,0.91405822924766
0.032031332,1.0702605236421,49.594703017017,0.91406307003415
0.032226645,1.0708060786541,49.594767897923,0.91406791122258
0.032421958,1.0713522678709,49.594832777641,0.91407275282373
0.032617271,1.071899091037,49.594897656829,0.91407759484267
0.032812584,1.0724465479435,49.594962536026,0.91408243728252
0.033007897,1.0729946384262,49.595027415717,0.91408728014568
0.03320321,1.0735433623642,49.595092296359,0.91409212343429
0.033398523,1.0740927196787,49.59515717839,0.91409696715034
0.033593836,1.0746427103311,49.595222062228,0.91410181129571
0.033789149,1.0751933343216,49.595286948278,0.91410665587223
0.033984462,1.0757445916885,49.595351836929,0.91411150088165
0.034179775,1.0762964825059,49.595416728555,0.91411634632565
0.034375088,1.0768490068834,49.595481623518,0.91412119220586
0.034570401,1.0774021649643,49.595546522165,0.91412603852385
0.034765714,1.0779559225155,49.595613506224,0.91413092369875
0.034961027,1.0785103829768,49.595679023457,0.91413578238336
0.03515634,1.0790654433588,49.595744071791,0.91414063257467
0.035351653,1.0796211383356,49.595808966595,0.91414548025329
0.035546966,1.080177468202,49.595873815664,0.91415032743132
0.035742279,1.0807344332811,49.59593865556,0.91415517478294
0.035937592,1.0812920339239,49.596003498591,0.91416002253277
0.036132905,1.0818502705052,49.596068348955,0.91416487075508
0.036328218,1.0824091434269,49.596133208141,0.91416971947394
0.036523531,1.0829686531142,49.596198076731,0.9141745686967
0.036718844,1.0835288000157,49.596262954999,0.91417941842516
0.036914157,1.0840895846025,49.596327843114,0.9141842686593
0.03710947,1.0846510073674,49.596392741207,0.91418911939853
0.037304783,1.0852130688245,49.596457649392,0.91419397064206
0.037500096,1.0857757695081,49.596522567777,0.91419882238912
0.037695409,1.0863391099722,49.596587496466,0.91420367463888
0.037890722,1.0869030907901,49.596652435556,0.9142085273906
0.038086035,1.0874677125537,49.596717385142,0.91421338064352
0.038281348,1.0880329758725,49.596782345318,0.91421823439694
0.038476661,1.0885988813736,49.59684731617,0.91422308865017
0.038671974,1.0891654297009,49.596912297786,0.91422794340256
0.038867287,1.0897325870098,49.596979355224,0.91423283677071
0.0390626,1.0903004574949,49.597044964906,0.91423770393026
0.039257913,1.0908689383334,49.597110115857,0.91424256272525
0.039453226,1.0914380647332,49.597175120663,0.91424741908447
0.039648539,1.0920078374132,49.597240086004,0.91425227500126
0.039843852,1.0925782571075,49.597305047927,0.91425713114234
0.040039165,1.0931493245645,49.597370018441,0.91426198772878
0.040234478,1.093721040544,49.597435001518,0.91426684483267
0.040429791,1.0942934058206,49.597499998454,0.91427170247635
0.040625104,1.0948664211808,49.597565009653,0.91427656066565
0.040820417,1.0954400874229,49.597630035217,0.91428141940095
0.04101573,1.096014405357,49.597695075152,0.91428627868087
0.041211043,1.0965893758046,49.597760129432,0.91429113850351
0.041406356,1.0971649995981,49.597825198021,0.91429599886686
0.041601669,1.0977412775808,49.59789028088,0.9143008597689
0.041796982,1.0983182106064,49.597955377972,0.91430572120768
0.041992295,1.0988957995386,49.598020489261,0.91431058318131
0.042187608,1.0994740452511,49.598085614713,0.91431544568797
0.042382921,1.1000529486272,49.598150754292,0.9143203087259
0.042578234,1.1006325105595,49.598215907969,0.91432517229343
0.042773547,1.1012127319497,49.598281075711,0.91433003638893
0.04296886,1.1017935791177,49.598348305319,0.9143349388142
0.043164173,1.1023751567599,49.598414103247,0.91433981529162
0.043359486,1.1029573620312,49.598479449406,0.91434468350727
0.043554799,1.1035402304555,49.598544653617,0.91434954933714
0.043750112,1.1041237629755,49.598609821528,0.91435441475613
0.043945425,1.1047079605422,49.598674988776,0.91435928042431
0.044140738,1.1052928241157,49.598740167174,0.91436414656009
0.044336051,1.1058783546613,49.598805360579,0.91436901323424
0.044531364,1.1064645531541,49.598870570196,0.91437388046827
0.044726677,1.1070514205751,49.598935796347,0.91437874826735
0.04492199,1.1076389579128,49.599001039061,0.91438361663125
0.045117303,1.1082271661622,49.599066298272,0.91438848555804
0.045312616,1.1088160463249,49.599131573887,0.91439335504529
0.045507929,1.1094055994093,49.599196865803,0.91439822509045
0.045703242,1.1099958264298,49.599262173919,0.91440309569104
0.045898555,1.1105867284074,49.599327498136,0.9144079668446
0.046093868,1.1111783063689,49.599392838361,0.9144128385488
0.046289181,1.1117705613474,49.5994581945,0.91441771080136
0.046484494,1.1123634943815,49.599523566466,0.91442258360009
0.046679807,1.1129571065158,49.599588954176,0.91442745694291
0.04687512,1.1135513988006,49.599654357546,0.91443233082779
0.047070433,1.1141463376175,49.59972180684,0.91443724273592
0.047265746,1.1147420280542,49.599787839171,0.91444212894753
0.047461059,1.1153383671551,49.599853425249,0.91444700698842
0.047656372,1.1159353906631,49.599918872132,0.91445188268135
0.047851685,1.1165330996538,49.599984284475,0.91445675798294
0.048046998,1.1171314952087,49.600049697551,0.91446163354694
0.048242311,1.1177305784152,49.600115123027,0.91446650958948
0.048437624,1.1183303503641,49.60018056469,0.91447138618045
0.048632937,1.1189308121526,49.600246023701,0.91447626334091
0.04882825,1.1195319648824,49.600311500346,0.91448114107574
0.049023563,1.1201338096596,49.600376994624,0.91448601938449
0.049218876,1.1207363475953,49.600442506438,0.91449089826504
0.049414189,1.1213395798049,49.600508035667,0.91449577771474
0.049609502,1.1219435074082,49.600573582181,0.9145006577309
0.049804815,1.1225481315297,49.600639145853,0.91450553831082
0.050000128,1.1231534532981,49.600704726559,0.91451041945189
0.050195441,1.1237594738465,49.600770324181,0.91451530115161
0.050390754,1.1243661943123,49.600835938603,0.91452018340754
0.050586067,1.1249736158371,49.600901569715,0.91452506621734
0.05078138,1.1255817395665,49.600967217409,0.91452994957877
0.050976693,1.1261905666505,49.601032881584,0.91453483348966
0.051172006,1.1268000634862,49.601100574825,0.91453975510768
0.051367319,1.1274103355065,49.601166865207,0.9145446512763
0.051562632,1.1280212796027,49.601232714195,0.91454953935998
0.051757945,1.1286329316948,49.601298426088,0.91455442512798
0.051953258,1.1292452929514,49.601364104562,0.91455931051874
0.052148571,1.1298583645457,49.601429784547,0.91456419617982
0.052343884,1.1304721476559,49.601495477588,0.9145690823253
0.052539197,1.131086643462,49.601561187423,0.91457396902431
0.05273451,1.13170185315,49.60162691519,0.91457885629767
0.052929823,1.1323177779089,49.601692661158,0.91458374415014
0.053125136,1.1329344189314,49.601758425315,0.91458863258123
0.053320449,1.133551777414,49.601824207555,0.91459352158876
0.053515762,1.1341698545568,49.601890007744,0.91459841117006
0.053711075,1.1347886515636,49.601955825745,0.91460330132238
0.053906388,1.1354081696418,49.60202166142,0.91460819204302
0.054101701,1.1360284100024,49.602087514638,0.91461308332933
0.054297014,1.13664937386,49.60215338527,0.91461797517876
0.054492327,1.1372710624328,49.602219273193,0.91462286758885
0.05468764,1.1378934769424,49.602285178287,0.91462776055724
0.054882953,1.1385166186141,49.60235110044,0.91463265408164
0.055078266,1.1391404886766,49.60241703954,0.91463754815986
0.055273579,1.1397650535212,49.60248499042,0.91464247962449
0.055468892,1.1403904189105,49.602551552266,0.91464738588499
0.055664205,1.1410164815608,49.602617677283,0.91465228414393
0.055859518,1.1416432775529,49.602683667006,0.91465718011702
0.056054831,1.1422708081317,49.602749624146,0.91466207572449
0.056250144,1.1428990745459,49.602815583295,0.91466697160783
0.056445457,1.1435280780491,49.602881555887,0.91467186797909
0.05664077,1.1441578198961,49.60294754562,0.91467676490677
0.056836083,1.1447883013472,49.603013553618,0.91468166241152
0.057031396,1.1454195236655,49.603079580146,0.91468656049806
0.057226709,1.1460514881175,49.603145625187,0.91469145916592
0.057422022,1.1466841959728,49.603211688633,0.91469635841294
0.057617335,1.1473176485048,49.603277770349,0.9147012582365
0.057812648,1.1479518469899,49.603343870195,0.91470615863389
0.058007961,1.1485867927078,49.603409988034,0.91471105960241
0.058203274,1.1492224869418,49.603476123731,0.91471596113947
0.058398587,1.1498589309784,49.603542277156,0.91472086324255
0.0585939,1.1504961261074,49.603608448185,0.91472576590921
0.058789213,1.1511340736218,49.603674636697,0.91473066913711
0.058984526,1.1517727748182,49.603740842577,0.91473557292399
0.059179839,1.1524122309964,49.603807065713,0.91474047726769
0.059375152,1.1530524085328,49.603875283135,0.91474541867471
0.059570465,1.1536934135175,49.603942125229,0.9147503351221
0.059765778,1.1543351424805,49.604008534925,0.91475524365032
0.059961091,1.1549776316585,49.604074811001,0.9147601499214
0.060156404,1.1556208823668,49.604141055197,0.91476505583741
0.060351717,1.1562648959244,49.604207301779,0.91476996203378
0.06054703,1.1569096736545,49.60427356207,0.91477486872058
0.060742343,1.1575552168821,49.604339839735,0.91477977596571
0.060937656,1.1582015269373,49.604406135887,0.91478468378968
0.061132969,1.158848605153,49.604472450791,0.91478959219721
0.061328282,1.1594964528652,49.604538784429,0.91479450118788
0.061523595,1.1601450714132,49.604605136696,0.91479941075959
0.061718908,1.1607944621399,49.604671507459,0.91480432090981
0.061914221,1.1614446263912,49.60473789658,0.91480923163586
0.062109534,1.1620955655164,49.604804303924,0.91481414293513
0.062304847,1.162747280868,49.604870729357,0.91481905480508
0.06250016,1.1633997738021,49.604937172751,0.91482396724323
0.062695473,1.1640530456779,49.605003633984,0.91482888024722
0.062890786,1.1647070978578,49.605070112937,0.91483379381476
0.063086099,1.1653619317078,49.605136609496,0.91483870794363
0.063281412,1.166017548597,49.60520312355,0.9148436226317
0.063476725,1.1666739148835,49.6052716143,0.91484857405882
0.063672038,1.1673311369903,49.605338743368,0.91485350077048
0.063867351,1.1679891112533,49.605405444419,0.91485841964491
0.064062664,1.1686478740667,49.605472013465,0.91486333629047
0.064257977,1.1693074268151,49.605538551282,0.91486825259107
