time,amplitude,fluxintegral,power
0.00025,1.000014868907,49.577489447199,0.91322455925473
0.0005,1.0000584690707,49.577815202467,0.91323165284082
0.00075,1.0001293761369,49.578176616441,0.9132396346108
0.001,1.0002262657283,49.578546426219,0.9132479713649
0.00125,1.0003478923432,49.578912776397,0.91325641861357
0.0015,1.0004930776612,49.579270483756,0.91326486205875
0.00175,1.0006607041416,49.579617396122,0.91327324862757
0.002,1.0008497289583,49.579951037092,0.91328152254548
0.00225,1.0010591099567,49.580272955266,0.91328970427007
0.0025,1.0012879051886,49.580583409103,0.91329779179737
0.00275,1.0015352044485,49.580882804488,0.91330578650142
0.003,1.0018001426628,49.58117160447,0.91331369131603
0.00325,1.0020818976069,49.581450287962,0.91332150984582
0.0035,1.0023796877533,49.581719329876,0.91332924592817
0.00375,1.0026927702329,49.581979191776,0.91333690341899
0.004,1.0030204389046,49.582230317733,0.91334448609005
0.00425,1.0033620225223,49.582473132758,0.91335199758197
0.0045,1.0037168829957,49.582708042506,0.91335944138479
0.00475,1.0040844137389,49.582935433581,0.91336682083225
0.005,1.0044640381023,49.583155674138,0.9133741391027
0.00525,1.0048552078835,49.583369114604,0.91338139922337
0.0055,1.0052574019132,49.583576088447,0.91338860407577
0.00575,1.0056701247115,49.58377691294,0.91339575640193
0.006,1.0060929052129,49.583971889917,0.91340285881057
0.00625,1.0065252955541,49.584161306501,0.91340991378333
0.0065,1.0069668699232,49.584345435807,0.91341692368075
0.00675,1.0074172234665,49.584524537611,0.91342389074803
0.007,1.0078759712501,49.58469885899,0.9134308171206
0.00725,1.0083427472732,49.584868634938,0.91343770482935
0.0075,1.0088172035313,49.585034088946,0.91344455580573
0.00775,1.0092990091256,49.585195433559,0.91345137188657
0.008,1.0097878494179,49.585352870912,0.91345815481861
0.00825,1.0102834252265,49.585506593229,0.91346490626295
0.0085,1.0107854520632,49.585656783308,0.91347162779916
0.00875,1.0112936594082,49.585803614982,0.91347832092931
0.009,1.0118077900206,49.585947253554,0.91348498708171
0.00925,1.0123275992842,49.586087856214,0.91349162761451
0.0095,1.0128528545852,49.586225572433,0.91349824381918
0.00975,1.0133833347212,49.586360544345,0.91350483692372
0.01,1.0139188293394,49.586492907106,0.91351140809579
0.01025,1.0144591384031,49.586622789231,0.91351795844569
0.0105,1.0150040716844,49.586750312924,0.91352448902913
0.01075,1.0155534482823,49.586875594392,0.91353100085003
0.011,1.0161070961648,49.586998744123,0.91353749486282
0.01125,1.0166648517334,49.587119867184,0.91354397197506
0.0115,1.0172265594094,49.587239063481,0.91355043304976
0.01175,1.0177920712412,49.587356428013,0.91355687890749
0.012,1.0183612465302,49.587472051115,0.91356331032852
0.01225,1.0189339514755,49.587586018685,0.91356972805476
0.0125,1.0195100588371,49.587698412402,0.91357613279169
0.01275,1.0200894476141,49.587809309937,0.91358252521014
0.013,1.0206720027404,49.587918785151,0.91358890594799
0.01325,1.0212576147946,49.588026908277,0.91359527561181
0.0135,1.0218461797241,49.588133746103,0.91360163477839
0.01375,1.0224375985838,49.588239362142,0.91360798399621
0.014,1.0230317772863,49.588343816792,0.91361432378685
0.01425,1.0236286263656,49.588447167489,0.91362065464629
0.0145,1.0242280607521,49.588549468854,0.91362697704621
0.01475,1.0248299995583,49.588650772834,0.91363329143514
0.015,1.0254343658754,49.588751128827,0.91363959823966
0.01525,1.0260410865802,49.588850583817,0.91364589786543
0.0155,1.0266500921507,49.588949182484,0.91365219069823
0.01575,1.0272613164915,49.589046967324,0.913658477105
0.016,1.0278746967676,49.589143978752,0.91366475743468
0.01625,1.0284901732463,49.58924025521,0.91367103201916
0.0165,1.0291076891464,49.589335833257,0.91367730117409
0.01675,1.0297271904958,49.589430747668,0.91368356519969
0.017,1.0303486259953,49.589525031518,0.91368982438152
0.01725,1.0309719468892,49.589618716268,0.91369607899117
0.0175,1.0315971068426,49.589711831845,0.91370232928702
0.01775,1.0322240618244,49.589804406712,0.91370857551478
0.018,1.0328527699957,49.589896467949,0.91371481790821
0.01825,1.0334831916046,49.589988041311,0.91372105668967
0.0185,1.0341152888854,49.590079151302,0.91372729207068
0.01875,1.0347490259625,49.590169821232,0.91373352425245
0.019,1.0353843687601,49.590260073274,0.91373975342642
0.01925,1.0360212849151,49.590349928526,0.91374597977467
0.0195,1.036659743695,49.590439407057,0.91375220347046
0.01975,1.0372997159193,49.590528527962,0.91375842467862
0.02,1.0379411738853,49.590617309408,0.91376464355597
0.02025,1.0385840912971,49.590705768679,0.91377086025171
0.0205,1.039228443198,49.590793922222,0.9137770749078
0.02075,1.0398742059067,49.590881785684,0.91378328765931
0.021,1.0405213569559,49.590969373956,0.91378949863478
0.02125,1.0411698750344,49.591056701206,0.91379570795649
0.0215,1.0418197399318,49.591143780914,0.91380191574084
0.02175,1.0424709324859,49.591230625911,0.91380812209855
0.022,1.0431234345331,49.591317248406,0.91381432713502
0.02225,1.04377722886,49.591403660015,0.91382053095054
0.0225,1.0444322991588,49.591489871797,0.91382673364056
0.02275,1.045088629984,49.591575894274,0.91383293529592
0.023,1.0457462067114,49.591661737462,0.91383913600306
0.02325,1.0464050154989,49.591747410891,0.91384533584428
0.0235,1.0470650432497,49.591832923635,0.91385153489791
0.02375,1.0477262775767,49.591918284329,0.9138577332385
0.024,1.048388706769,49.592003501192,0.91386393093698
0.02425,1.0490523197599,49.592088582047,0.91387012806093
0.0245,1.0497171060964,49.592173534342,0.91387632467464
0.02475,1.05038305591,49.592258365168,0.91388252083933
0.025,1.0510501598897,49.592343081272,0.91388871661327
0.02525,1.051718409255,49.592427689079,0.91389491205195
0.0255,1.0523877957314,49.592512194708,0.91390110720818
0.02575,1.0530583115266,49.592596603981,0.91390730213227
0.026,1.0537299493074,49.592680922443,0.91391349687209
0.02625,1.0544027021789,49.592765155373,0.91391969147324
0.0265,1.055076563663,49.592849307797,0.91392588597915
0.02675,1.0557515276798,49.592933384503,0.91393208043115
0.027,1.0564275885284,49.593017390047,0.91393827486863
0.02725,1.0571047408695,49.59310132877,0.91394446932907
0.0275,1.0577829797083,49.593185204805,0.91395066384819
0.02775,1.0584623003788,49.593269022087,0.91395685846
0.028,1.0591426985279,49.593352784365,0.9139630531969
0.02825,1.0598241701018,49.59343649521,0.91396924808975
0.0285,1.0605067113311,49.593520158021,0.91397544316793
0.02875,1.0611903187184,49.593603776038,0.91398163845944
0.029,1.0618749890253,49.593687352345,0.91398783399097
0.02925,1.0625607192608,49.59377088988,0.91399402978793
0.0295,1.0632475066696,49.593854391444,0.91400022587451
0.02975,1.0639353487212,49.593937859703,0.9140064222738
0.03,1.0646242431,49.594021297197,0.91401261900776
0.03025,1.0653141876951,49.594104706347,0.91401881609736
0.0305,1.0660051805912,49.594188089459,0.91402501356253
0.03075,1.0666972200591,49.59427144873,0.91403121142231
0.031,1.0673903045483,49.594354786254,0.91403740969483
0.03125,1.0680844326777,49.594438104025,0.91404360839735
0.0315,1.0687796032287,49.594521403946,0.91404980754636
0.03175,1.0694758151375,49.594604687828,0.91405600715754
0.032,1.0701730674885,49.594687957398,0.91406220724586
0.03225,1.070871359507,49.5947712143,0.9140684078256
0.0325,1.0715706905535,49.594854460106,0.91407460891035
0.03275,1.0722710601173,49.594937696308,0.91408081051308
0.033,1.072972467811,49.595020924333,0.91408701264616
0.03325,1.0736749133645,49.59510414554,0.91409321532139
0.0335,1.0743783966207,49.595187361224,0.91409941855001
0.03375,1.0750829175295,49.595270572619,0.91410562234275
0.034,1.0757884761439,49.595353780905,0.91411182670984
0.03425,1.0764950726149,49.595436987203,0.91411803166105
0.0345,1.0772027071875,49.595520192585,0.91412423720569
0.03475,1.0779113801967,49.595603398071,0.91413044335265
0.035,1.0786210920634,49.595686604637,0.9141366501104
0.03525,1.0793318432906,49.59576981321,0.91414285748704
0.0355,1.0800436344602,49.595853024677,0.91414906549028
0.03575,1.0807564662293,49.595936239885,0.91415527412751
0.036,1.0814703393272,49.596019459638,0.91416148340575
0.03625,1.0821852545522,49.596102684706,0.91416769333172
0.0365,1.0829012127688,49.596185915825,0.91417390391184
0.03675,1.0836182149049,49.596269153695,0.91418011515223
0.037,1.084336261949,49.596352398984,0.91418632705874
0.03725,1.0850553549479,49.59643565233,0.91419253963696
0.0375,1.0857754950043,49.596518914344,0.91419875289223
0.03775,1.0864966832743,49.596602185607,0.91420496682963
0.038,1.0872189209653,49.596685466673,0.91421118145405
0.03825,1.087942209334,49.596768758074,0.91421739677015
0.0385,1.0886665496844,49.596852060316,0.91422361278237
0.03875,1.0893919433659,49.596935373882,0.91422982949496
0.039,1.0901183917715,49.597018699235,0.91423604691202
0.03925,1.0908458963362,49.597102036816,0.9142422650374
0.0395,1.0915744585349,49.597185387045,0.91424848387484
0.03975,1.0923040798817,49.597268750327,0.91425470342791
0.04,1.0930347619275,49.597352127046,0.9142609237
0.04025,1.0937665062593,49.597435517571,0.91426714469438
0.0405,1.0944993144983,49.597518922252,0.91427336641415
0.04075,1.0952331882993,49.597602341428,0.91427958886233
0.041,1.0959681293486,49.597685775418,0.91428581204175
0.04125,1.0967041393637,49.597769224531,0.91429203595517
0.0415,1.0974412200915,49.597852689061,0.9142982606052
0.04175,1.0981793733078,49.59793616929,0.91430448599437
0.042,1.098918600816,49.598019665487,0.91431071212508
0.04225,1.099658904446,49.598103177909,0.91431693899964
0.0425,1.1004002860536,49.598186706805,0.91432316662027
0.04275,1.1011427475196,49.598270252409,0.91432939498911
0.043,1.1018862907488,49.59835381495,0.91433562410818
0.04325,1.1026309176694,49.598437394642,0.91434185397944
0.0435,1.1033766302319,49.598520991694,0.91434808460478
0.04375,1.1041234304088,49.598604606306,0.914354315986
0.044,1.1048713201938,49.598688238667,0.91436054812483
0.04425,1.1056203016011,49.598771888961,0.91436678102294
0.0445,1.1063703766646,49.598855557363,0.91437301468194
0.04475,1.1071215474378,49.598939244042,0.91437924910337
0.045,1.1078738159926,49.599022949159,0.9143854842887
0.04525,1.1086271844195,49.599106672869,0.91439172023936
0.0455,1.1093816548264,49.599190415321,0.91439795695673
0.04575,1.1101372293385,49.599274176658,0.91440419444212
0.046,1.1108939100979,49.599357957018,0.91441043269683
0.04625,1.1116516992629,49.599441756531,0.91441667172206
0.0465,1.1124105990076,49.599525575326,0.914422911519
0.04675,1.1131706115218,49.599609413524,0.91442915208881
0.047,1.1139317390106,49.599693271242,0.91443539343258
0.04725,1.1146939836934,49.599777148594,0.91444163555137
0.0475,1.1154573478046,49.599861045689,0.91444787844621
0.04775,1.1162218335923,49.59994496263,0.9144541221181
0.048,1.1169874433185,49.600028899519,0.914460366568
0.04825,1.1177541792589,49.600112856454,0.91446661179683
0.0485,1.1185220437024,49.600196833527,0.9144728578055
0.04875,1.1192910389507,49.60028083083,0.91447910459489
0.049,1.1200611673184,49.60036484845,0.91448535216581
0.04925,1.1208324311325,49.600448886471,0.91449160051912
0.0495,1.1216048327324,49.600532944975,0.91449784965559
0.04975,1.1223783744694,49.600617024039,0.914504099576
0.05,1.1231530587068,49.600701123742,0.91451035028109
0.05025,1.1239288878194,49.600785244155,0.91451660177158
0.0505,1.1247058641936,49.600869385351,0.91452285404819
0.05075,1.1254839902271,49.600953547398,0.9145291071116
0.051,1.1262632683286,49.601037730364,0.91453536096248
0.05125,1.127043700918,49.601121934313,0.91454161560149
0.0515,1.1278252904258,49.601206159308,0.91454787102924
0.05175,1.1286080392933,49.601290405409,0.91455412724636
0.052,1.1293919499725,49.601374672677,0.91456038425347
0.05225,1.1301770249257,49.601458961169,0.91456664205113
0.0525,1.1309632666254,49.60154327094,0.91457290063993
0.05275,1.1317506775546,49.601627602046,0.91457916002043
0.053,1.1325392602062,49.601711954539,0.91458542019317
0.05325,1.1333290170832,49.601796328471,0.9145916811587
0.0535,1.1341199506985,49.601880723892,0.91459794291753
0.05375,1.1349120635747,49.60196514085,0.91460420547019
0.054,1.1357053582444,49.602049579395,0.91461046881718
0.05425,1.1364998372496,49.602134039572,0.91461673295898
0.0545,1.1372955031421,49.602218521427,0.91462299789609
0.05475,1.1380923584831,49.602303025005,0.91462926362899
0.055,1.1388904058433,49.602387550348,0.91463553015813
0.05525,1.139689647803,49.602472097501,0.91464179748399
0.0555,1.1404900869514,49.602556666503,0.914648065607
0.05575,1.1412917258874,49.602641257397,0.91465433452762
0.056,1.1420945672191,49.602725870222,0.91466060424629
0.05625,1.1428986135636,49.602810505018,0.91466687476342
0.0565,1.1437038675473,49.602895161823,0.91467314607945
0.05675,1.1445103318057,49.602979840675,0.91467941819481
0.057,1.1453180089835,49.60306454161,0.91468569110989
0.05725,1.1461269017343,49.603149264667,0.9146919648251
0.0575,1.1469370127207,49.60323400988,0.91469823934086
0.05775,1.1477483446146,49.603318777285,0.91470451465756
0.058,1.1485609000965,49.603403566917,0.91471079077558
0.05825,1.149374681856,49.603488378811,0.91471706769532
0.0585,1.1501896925919,49.603573212999,0.91472334541716
0.05875,1.1510059350115,49.603658069516,0.91472962394149
0.059,1.1518234118313,49.603742948394,0.91473590326867
0.05925,1.1526421257766,49.603827849666,0.91474218339909
0.0595,1.1534620795815,49.603912773363,0.9147484643331
0.05975,1.1542832759891,49.603997719519,0.91475474607108
0.06,1.1551057177512,49.604082688163,0.91476102861339
0.06025,1.1559294076289,49.604167679328,0.91476731196039
0.0605,1.1567543483915,49.604252693044,0.91477359611243
0.06075,1.1575805428177,49.604337729341,0.91477988106988
0.061,1.1584079936948,49.60442278825,0.91478616683308
0.06125,1.1592367038189,49.604507869799,0.91479245340239
0.0615,1.1600666759953,49.60459297402,0.91479874077815
0.06175,1.1608979130377,49.604678100941,0.9148050289607
0.062,1.1617304177691,49.604763250592,0.9148113179504
0.06225,1.1625641930209,49.604848423001,0.91481760774758
0.0625,1.1633992416339,49.604933618197,0.91482389835258
0.06275,1.1642355664575,49.605018836209,0.91483018976575
0.063,1.1650731703499,49.605104077065,0.91483648198741
0.06325,1.1659120561785,49.605189340793,0.91484277501791
0.0635,1.1667522268194,49.605274627421,0.91484906885757
0.06375,1.1675936851577,49.605359936978,0.91485536350674
0.064,1.1684364340874,49.60544526949,0.91486165896573
0.06425,1.1692804765116,49.605530624986,0.91486795523489
0.0645,1.1701258153422,49.605616003493,0.91487425231455
0.06475,1.1709724535002,49.605701405038,0.91488055020501
0.065,1.1718203939156,49.605786829648,0.91488684890664
0.06525,1.1726696395274,49.605872277352,0.91489314841973
0.0655,1.1735201932837,49.605957748175,0.91489944874463
0.06575,1.1743720581416,49.606043242145,0.91490574988164
0.066,1.1752252370673,49.606128759289,0.91491205183111
0.06625,1.1760797330361,49.606214299634,0.91491835459335
0.0665,1.1769355490324,49.606299863205,0.91492465816869
0.06675,1.1777926880499,49.606385450031,0.91493096255745
0.067,1.1786511530914,49.606471060138,0.91493726775994
0.06725,1.1795109471686,49.606556693552,0.91494357377651
0.0675,1.180372073303,49.6066423503,0.91494988060745
0.06775,1.1812345345247,49.606728030409,0.9149561882531
0.068,1.1820983338736,49.606813733904,0.91496249671378
0.06825,1.1829634743987,49.606899460812,0.9149688059898
0.0685,1.1838299591581,49.606985211161,0.91497511608149
0.06875,1.1846977912195,49.607070984976,0.91498142698917
0.069,1.18556697366,49.607156782283,0.91498773871315
0.06925,1.1864375095659,49.607242603109,0.91499405125375
0.0695,1.1873094020331,49.607328447482,0.9150003646113
0.06975,1.1881826541669,49.607414315425,0.91500667878612
0.07,1.189057269082,49.607500206967,0.91501299377853
0.07025,1.1899332499028,49.607586122133,0.91501930958883
0.0705,1.1908105997629,49.60767206095,0.91502562621736
0.07075,1.1916893218058,49.607758023444,0.91503194366444
0.071,1.1925694191846,49.607844009642,0.91503826193037
0.07125,1.1934508950617,49.607930019569,0.91504458101548
0.0715,1.1943337526096,49.608016053253,0.9150509009201
0.07175,1.1952179950101,49.60810211072,0.91505722164454
0.072,1.196103625455,49.608188191996,0.91506354318912
0.07225,1.1969906471457,49.608274297107,0.91506986555415
0.0725,1.1978790632935,49.608360426081,0.91507618873997
0.07275,1.1987688771193,49.608446578943,0.91508251274689
0.073,1.1996600918542,49.60853275572,0.91508883757523
0.07325,1.2005527107389,49.608618956439,0.91509516322532
0.0735,1.2014467370241,49.608705181125,0.91510148969747
0.07375,1.2023421739706,49.608791429807,0.915107816992
0.074,1.203239024849,49.608877702511,0.91511414510925
0.07425,1.2041372929399,49.608963999262,0.91512047404952
0.0745,1.2050369815341,49.609050320088,0.91512680381314
0.07475,1.2059380939324,49.609136665016,0.91513313440044
0.075,1.2068406334458,49.609223034071,0.91513946581174
0.07525,1.2077446033954,49.609309427283,0.91514579804735
0.0755,1.2086500071125,49.609395844676,0.9151521311076
0.07575,1.2095568479387,49.609482286278,0.91515846499283
0.076,1.2104651292258,49.609568752116,0.91516479970334
0.07625,1.2113748543359,49.609655242217,0.91517113523947
0.0765,1.2122860266415,49.609741756607,0.91517747160154
0.07675,1.2131986495254,49.609828295315,0.91518380878987
0.077,1.2141127263809,49.609914858366,0.91519014680479
0.07725,1.2150282606117,49.610001445789,0.91519648564663
0.0775,1.2159452556321,49.610088057611,0.9152028253157
0.07775,1.2168637148667,49.610174693858,0.91520916581236
0.078,1.2177836417509,49.610261354559,0.91521550713692
0.07825,1.2187050397307,49.61034803974,0.9152218492897
0.0785,1.2196279122625,49.61043474943,0.91522819227104
0.07875,1.2205522628136,49.610521483655,0.91523453608126
0.079,1.2214780948621,49.610608242443,0.91524088072069
0.07925,1.2224054118966,49.610695025822,0.91524722618967
0.0795,1.2233342174166,49.61078183382,0.91525357248852
0.07975,1.2242645149327,49.610868666464,0.91525991961758
0.08,1.225196307966,49.610955523782,0.91526626757717
0.08025,1.2261296000488,49.611042405802,0.91527261636763
0.0805,1.2270643947241,49.611129312552,0.91527896598929
0.08075,1.2280006955462,49.61121624406,0.91528531644249
0.081,1.2289385060803,49.611303200353,0.91529166772755
0.08125,1.2298778299027,49.611390181461,0.91529801984481
0.0815,1.2308186706007,49.611477187411,0.9153043727946
0.08175,1.2317610317731,49.611564218231,0.91531072657726
0.082,1.2327049170295,49.61165127395,0.91531708119313
0.08225,1.2336503299911,49.611738354596,0.91532343664253
0.0825,1.2345972742903,49.611825460198,0.91532979292581
0.08275,1.2355457535706,49.611912590784,0.91533615004331
0.083,1.2364957714873,49.611999746382,0.91534250799536
0.08325,1.2374473317068,49.612086927021,0.9153488667823
0.0835,1.2384004379071,49.612174132731,0.91535522640446
0.08375,1.2393550937776,49.612261363539,0.91536158686219
0.084,1.2403113030195,49.612348619476,0.91536794815584
0.08425,1.2412690693453,49.612435900568,0.91537431028572
0.0845,1.2422283964795,49.612523206846,0.9153806732522
0.08475,1.2431892881578,49.612610538339,0.91538703705561
0.085,1.2441517481281,49.612697895075,0.91539340169629
0.08525,1.2451157801499,49.612785277084,0.91539976717458
0.0855,1.246081323537,49.612877666064,0.91540622563842
0.08575,1.247048575462,49.612964885961,0.91541258910006
0.086,1.2480173463313,49.613052158825,0.91541895366753
0.08625,1.2489877044085,49.613139466189,0.91542531923486
0.0865,1.2499596535118,49.613226806441,0.91543168577945
0.08675,1.2509331974721,49.613314178957,0.91543805329014
0.087,1.2519083401326,49.613401583354,0.91544442175968
0.08725,1.2528850853487,49.613489019346,0.91545079118256
0.0875,1.253863436988,49.613576486693,0.9154571615541
0.08775,1.2548433989304,49.613663985182,0.91546353287013
0.088,1.2558249750681,49.613751514618,0.91546990512677
0.08825,1.2568081693055,49.613839074815,0.91547627832041
0.0885,1.2577929855593,49.613926665601,0.91548265244761
0.08875,1.258779427759,49.614014286811,0.91548902750511
0.089,1.2597674998463,49.614101938289,0.91549540348979
0.08925,1.2607572057754,49.614189619885,0.91550178039869
