time,amplitude,fluxintegral,power
0.001,1,49.598472256545,0.91361617204471
0.002,1.0002261839886,49.629204289415,0.91418969638678
0.003,1.0008498241278,49.676302365548,0.91506678605523
0.004,1.0018004151017,49.73685825839,0.91619345747454
0.005,1.0030208344604,49.80854034009,0.91752646029744
0.006,1.004464508565,49.889451624113,0.91903061655921
0.007,1.0060934144483,49.97804383546,0.92067721711146
0.008,1.0078764935717,50.073052114817,0.92244280852787
0.009,1.009788367184,50.173442694624,0.92430822241628
0.01,1.0118082915848,50.278370443312,0.92625778811078
0.011,1.0139193074502,50.387144304482,0.92827869183282
0.012,1.016107546746,50.49919913161,0.93036045445198
0.013,1.0183616677617,50.614072720815,0.93249450562985
0.014,1.02067239437,50.731387073305,0.93467383638944
0.015,1.0230321401187,50.850833101591,0.93689271553778
0.016,1.0254347013967,50.972158140969,0.93914645810275
0.017,1.0278750068718,51.09515574718,0.94143123615977
0.018,1.0303489127884,51.219657358032,0.94374392421975
0.019,1.0328530356584,51.34552547543,0.9460819728082
0.02,1.0353846154529,51.47264808811,0.94844330504957
0.021,1.0379414036857,51.6009341073,0.95082623203317
0.022,1.0405215718198,51.730309629705,0.95322938351955
0.023,1.0431236362722,51.860714876505,0.95565165118159
0.024,1.0457463969831,51.992101684996,0.95809214209283
0.025,1.0483888870744,52.124431452214,0.96055014059664
0.026,1.0510503315774,52.257673448359,0.96302507703244
0.027,1.0537301135813,52.391803432954,0.96551650207519
0.028,1.0564277464567,52.526802518891,0.96802406567154
0.029,1.0591428510546,52.662656239606,0.97054749974245
0.03,1.0618751369808,52.79935378273,0.9730866039727
0.031,1.0646243872127,52.936887360264,0.97564123413188
0.032,1.0673904454552,53.075251690746,0.97821129247228
0.033,1.0701732057453,53.214443573362,0.98079671983134
0.034,1.0729726039014,53.354461537527,0.98339748913384
0.035,1.0757886104884,53.495305554487,0.98601360004394
0.036,1.0786212250269,53.636976799879,0.98864507456225
0.037,1.0814704712261,53.779477458197,0.99129195340006
0.038,1.0843363930573,53.922810561746,0.99395429299273
0.039,1.0872190515203,54.066979857936,0.99663216303915
0.04,1.0901185219787,54.211989699977,0.99932564447463
0.041,1.0930348919646,54.357844956785,1.0020348278003
0.042,1.0959682593696,54.50455093877,1.004759811707
0.043,1.0989187309542,54.65211333669,1.0075007019413
0.044,1.10188642112,54.800538171301,1.0102576103721
0.045,1.1048714508982,54.949831751916,1.0130306542216
0.046,1.1078739471177,55.100000642313,1.015819955434
0.047,1.1108940417197,55.25105163272,1.0186256401551
0.048,1.1139318711956,55.402991716832,1.0214478383068
0.049,1.1169875761251,55.555828072982,1.0242866832377
0.05,1.1200613007978,55.709568048753,1.0271423114377
0.051,1.1231531929044,55.864219148437,1.0300148623056
0.052,1.1262634032844,56.019789022868,1.0329044779606
0.053,1.1293920857223,56.176285461205,1.0358113030898
0.054,1.1325393967821,56.333716384348,1.0387354848265
0.055,1.1357054956752,56.492089839708,1.0416771726527
0.056,1.1388905441555,56.651413997108,1.0446365183236
0.057,1.1420947064366,56.811697145613,1.0476136758086
0.058,1.1453181491284,56.972947691147,1.0506088012473
0.059,1.1485610411892,57.135174154769,1.0536220529176
0.06,1.151823553891,57.298385171497,1.0566535912136
0.061,1.1551058607959,57.462589489582,1.0597035786326
0.062,1.1584081377414,57.627795970183,1.0627721797688
0.063,1.161730562834,57.794013587355,1.0658595613135
0.064,1.1650733164488,57.961251428331,1.0689658920598
0.065,1.1684365812353,58.129518694018,1.0720913429125
0.066,1.1718205421272,58.298824699712,1.0752360869009
0.067,1.1752253863569,58.469178875976,1.0784002991953
0.068,1.1786513034731,58.640590769666,1.0815841571263
0.069,1.1820984853614,58.813070045097,1.0847878402061
0.07,1.1855671262675,58.986626485301,1.0880115301521
0.071,1.189057422823,59.161269993413,1.0912554109126
0.072,1.1925695740725,59.33701059412,1.0945196686939
0.073,1.1961037815035,59.51385843521,1.0978044919886
0.074,1.1996602490768,59.691823789178,1.101110071606
0.075,1.2032391832593,59.870917054909,1.1044366007031
0.076,1.2068407930576,60.051148759422,1.107784274817
0.077,1.2104652900529,60.232529559661,1.1111532918983
0.078,1.2141128884371,60.415070244356,1.1145438523454
0.079,1.2177838050502,60.598781735924,1.11795615904
0.08,1.2214782594185,60.783675092424,1.1213904173837
0.081,1.2251964737939,60.969761509563,1.1248468353347
0.082,1.228938673194,61.157052322748,1.1283256234461
0.083,1.2327050854436,61.345559009178,1.1318269949053
0.084,1.2364959412165,61.535293189991,1.135351165573
0.085,1.2403114740787,61.726266632456,1.1388983540246
0.086,1.2441519205325,61.918491252199,1.1424687815912
0.087,1.2480175200611,62.111979115492,1.1460626724025
0.088,1.2519085151746,62.306742441572,1.1496802534292
0.089,1.2558251514569,62.502793605021,1.1533217545278
0.09,1.2597676776128,62.700145138176,1.1569874084855
0.091,1.2637363455171,62.898809733599,1.1606774510653
0.092,1.2677314102641,63.098800246595,1.1643921210535
0.093,1.2717531302176,63.30012969777,1.168131660307
0.094,1.2758017670631,63.502811275638,1.1718963138017
0.095,1.2798775858598,63.706858339297,1.175686329682
0.096,1.283980855094,63.91228442113,1.1795019593115
0.097,1.2881118467339,64.119103229571,1.1833434573239
0.098,1.2922708362851,64.327328651931,1.1872110816757
0.099,1.296458102847,64.536974757264,1.1911050936993
0.1,1.3006739291707,64.748055799296,1.1950257581577
0.101,1.3049186017176,64.960586219408,1.1989733432997
0.102,1.3091924107197,65.174580649679,1.2029481209163
0.103,1.3134956502402,65.390053915985,1.2069503663986
0.104,1.3178286182362,65.607021041162,1.2109803587962
0.105,1.3221916166219,65.825497248219,1.2150383808773
0.106,1.3265849513334,66.045497963634,1.2191247191896
0.107,1.3310089323946,66.267038820688,1.2232396641222
0.108,1.3354638739846,66.490135662889,1.2273835099695
0.109,1.3399500945062,66.714804547448,1.2315565549957
0.11,1.3444679166555,66.941061748826,1.2357591015002
0.111,1.3490176674936,67.168923762355,1.2399914558857
0.112,1.353599678519,67.398407307919,1.2442539287259
0.113,1.3582142857419,67.629529333729,1.2485468348359
0.114,1.3628618297594,67.862307020157,1.2528704933436
0.115,1.3675426558331,68.096757783624,1.2572252277614
0.116,1.3722571139672,68.332899280606,1.2616113660611
0.117,1.3770055589889,68.570749411831,1.2660292407517
0.118,1.3817883506301,68.810326326114,1.2704791889506
0.119,1.3866058536108,69.051648424895,1.2749615524681
0.12,1.3914584377245,69.294734366528,1.2794766778867
0.121,1.3963464779245,69.539603070481,1.2840249166394
0.122,1.4012703544125,69.786273722058,1.2886066250975
0.123,1.4062304527295,70.034765776882,1.2932221646534
0.124,1.4112271638474,70.285098965604,1.2978719018089
0.125,1.4162608842633,70.537293298679,1.3025562082631
0.126,1.4213320160955,70.791369071248,1.3072754610034
0.127,1.4264409671816,71.047346868111,1.3120300423982
0.128,1.4315881511782,71.305247568814,1.3168203402907
0.129,1.4367739876631,71.565092352826,1.3216467480958
0.13,1.4419989022395,71.826902704851,1.3265096648984
0.131,1.4472633266425,72.090700420219,1.3314094955536
0.132,1.4525676988472,72.356507610408,1.3363466507891
0.133,1.4579124631799,72.624346708675,1.3413215473102
0.134,1.4632980704312,72.894240475816,1.3463346079066
0.135,1.4687249779713,73.166212006031,1.3513862615612
0.136,1.4741936498681,73.440284732929,1.356476943562
0.137,1.4797045570079,73.716482435652,1.3616070956154
0.138,1.4852581772179,73.994829245128,1.3667771659628
0.139,1.4908549953925,74.27534965046,1.3719876094992
0.14,1.4964955036208,74.558068505463,1.3772388878943
0.141,1.5021802013185,74.843011035321,1.3825314697165
0.142,1.5079095953614,75.130202843398,1.3878658305595
0.143,1.5136842002218,75.419669918201,1.3932424531713
0.144,1.5195045381091,75.711438640492,1.3986618275866
0.145,1.5253711391119,76.005535790543,1.4041244512615
0.146,1.5312845413441,76.301988555568,1.4096308292114
0.147,1.5372452910939,76.600824537301,1.4151814741521
0.148,1.5432539429762,76.902071759753,1.4207769066436
0.149,1.5493110600883,77.205758677137,1.4264176552376
0.15,1.5554172141689,77.511914181961,1.4321042566274
0.151,1.5615729857608,77.820567613313,1.4378372558025
0.152,1.567778964377,78.131748765317,1.4436172062049
0.153,1.5740357486711,78.44548789579,1.4494446698906
0.154,1.5803439466103,78.761815735086,1.4553202176934
0.155,1.5867041756536,79.080763495137,1.4612444293931
0.156,1.5931170629332,79.402362878711,1.4672178938875
0.157,1.5995832454402,79.726646088855,1.4732412093677
0.158,1.6061033702147,80.053645838583,1.4793149834982
0.159,1.6126780945396,80.383395360759,1.4854398336004
0.16,1.6193080861397,80.715928418217,1.4916163868406
0.161,1.6259940233846,81.051279314114,1.4978452804223
0.162,1.6327365954966,81.389482902521,1.5041271617833
0.163,1.6395365027635,81.730574599248,1.5104626887962
0.164,1.6463944567559,82.07459039294,1.5168525299749
0.165,1.6533111805496,82.421566856402,1.5232973646851
0.166,1.6602874089536,82.771541158222,1.5297978833598
0.167,1.6673238887434,83.124551074639,1.5363547877202
0.168,1.6744213788987,83.4806350017,1.5429687910012
0.169,1.6815806508482,83.839831967698,1.5496406181829
0.17,1.6888024887187,84.202181645916,1.5563710062268
0.171,1.6960876895917,84.567724367658,1.5631607043182
0.172,1.7034370637642,84.936501135598,1.5700104741143
0.173,1.7108514350176,85.308553637446,1.5769210899977
0.174,1.7183316408913,85.683924259945,1.5838933393369
0.175,1.7258785329641,86.062656103192,1.5909280227517
0.176,1.7334929771418,86.444792995317,1.5980259543867
0.177,1.7411758539515,86.830379507514,1.6051879621899
0.178,1.748928058844,87.219460969432,1.6124148881987
0.179,1.7567505025023,87.612083484941,1.6197075888334
0.18,1.7646441111583,88.008293948294,1.6270669351964
0.181,1.7726098269171,88.40814006067,1.6344938133805
0.182,1.7806486080895,88.811670347136,1.6419891247834
0.183,1.7887614295323,89.218934174014,1.6495537864307
0.184,1.7969492829967,89.629981766695,1.6571887313065
0.185,1.8052131774865,90.044864227887,1.6648949086929
0.186,1.8135541396239,90.463633556315,1.6726732845166
0.187,1.8219732140253,90.886342665896,1.6805248417059
0.188,1.830471463686,91.313045405388,1.6884505805556
0.189,1.8390499703748,91.743796578544,1.6964515191008
0.19,1.8477098350383,92.178651964767,1.7045286935013
0.191,1.8564521782161,92.617668340292,1.712683158435
0.192,1.8652781404653,93.060903499911,1.720915987501
0.193,1.8741888827974,93.508416279248,1.729228273634
0.194,1.8831855871247,93.96026657761,1.7376211295287
0.195,1.8922694567195,94.416515381421,1.7460956880748
0.196,1.9014417166843,94.877224788264,1.7546531028039
0.197,1.9107036144347,95.342458031558,1.7632945483481
0.198,1.920056420194,95.812279505847,1.7720212209094
0.199,1.9295014275019,96.286754792784,1.7808343387428
0.2,1.9390399537353,96.765950687773,1.7897351426511
0.201,1.9486733406432,97.200821916784,1.7978064077019
0.202,1.9579082027369,97.617081566833,1.8055315799924
0.203,1.966304612186,97.995505701356,1.8125543744268
0.204,1.9739387829559,98.339626963905,1.8189404883707
0.205,1.9808811557818,98.652632628097,1.8247491113693
0.206,1.9871958219716,98.937408745685,1.8300338144329
0.207,1.992940961737,99.196572501252,1.8348431721629
0.208,1.9981693677654,99.432498192557,1.8392212499837
0.209,2.0029289401657,99.647339971256,1.843208027293
0.21,2.0072631391262,99.843052296345,1.8468397772926
0.211,2.0112113963033,100.02140845437,1.850149410757
0.212,2.0148094882147,100.18401735528,1.8531667877608
0.213,2.0180898750476,100.33233876981,1.8559190004743
0.214,2.0210820080666,100.46769715411,1.8584306297377
0.215,2.0238126085277,100.59129419283,1.8607239778508
0.216,2.0263059207384,100.70422017949,1.8628192797842
0.217,2.0285839416597,100.80746434199,1.8647348948114
0.218,2.0306666292263,100.90192421094,1.8664874803781
0.219,2.0325720913552,100.98841411962,1.8680921498544
0.22,2.0343167574346,101.06767291597,1.8695626156638
0.221,2.0359155339165,101.14037095984,1.8709113191453
0.222,2.0373819454866,101.20711647149,1.8721495483774
0.223,2.0387282631482,101.26846129169,1.8732875450805
0.224,2.0399656204331,101.32490610784,1.8743346016098
0.225,2.0411041188409,101.37690519571,1.8752991489581
0.226,2.0421529235036,101.42487072157,1.8761888365994
0.227,2.0431203499835,101.46917664558,1.8770106049336
0.228,2.0440139430243,101.51016226336,1.8777707510137
0.229,2.0448405480034,101.5481354192,1.8784749881824
0.23,2.0456063757595,101.5833754215,1.8791285001787
0.231,2.0463170614123,101.61613568793,1.8797359902305
0.232,2.0469777177292,101.64664614539,1.880301725596
0.233,2.0475929835451,101.67511540749,1.8808295779759
0.234,2.0481670676938,101.70173275023,1.8813230601803
0.235,2.0487037888678,101.72666990451,1.8817853593965
0.236,2.0492066117823,101.75008268247,1.8822193673725
0.237,2.0496786799879,101.77211245312,1.8826277078031
0.238,2.0501228456409,101.79288748113,1.8830127611777
0.239,2.0505416965145,101.81252414159,1.8833766873239
0.24,2.050937580506,101.83112802208,1.8837214458625
0.241,2.0513126278724,101.84879492267,1.8840488147652
0.242,2.0516687714046,101.86561176312,1.8843604071935
0.243,2.0520077647318,101.88165740614,1.8846576867751
0.244,2.052331198929,101.89700340415,1.8849419814659
0.245,2.0526405175854,101.911714677,1.8852144961255
0.246,2.0529370304752,101.92585012669,1.8854763239282
0.247,2.053221925962,101.9394631953,1.8857284567156
0.248,2.0534962822534,101.95260237103,1.8859717943896
0.249,2.0537610776111,101.96531164743,1.8862071534351
0.25,2.0540171996166,101.97763094002,1.8864352746523
0.251,2.0542654535759,101.98959646434,1.8866568301722
0.252,2.0545065701468,102.00124107889,1.8868724298223
0.253,2.0547412122582,102.01259459634,1.8870826269015
0.254,2.0549699813881,102.02368406584,1.8872879234204
0.255,2.0551934232603,102.0345340292,1.8874887748553
0.256,2.0554120330121,102.04516675331,1.8876855944616
0.257,2.0556262598838,102.05560244102,1.8878787571881
0.258,2.0558365114733,102.06585942247,1.8880686032273
0.259,2.0560431575956,102.07595432866,1.8882554412373
0.26,2.0562465337856,102.08590224899,1.8884395512649
0.261,2.0564469444757,102.09571687411,1.8886211873979
0.262,2.0566446658785,102.10541062564,1.8888005801714
0.263,2.0568399486032,102.11499477375,1.8889779387507
0.264,2.0570330200286,102.12447954393,1.8891534529127
0.265,2.0572240864564,102.13387421381,1.8893272948426
0.266,2.0574133350652,102.14318720101,1.889499620765
0.267,2.0576009356829,102.15242614291,1.889670572423
0.268,2.0577870423954,102.16159796892,1.8898402784213
0.269,2.0579717950052,102.17070896612,1.8900088554429
0.27,2.0581553203563,102.17976483884,1.8901764093555
0.271,2.0583377335343,102.18877076261,1.8903430362127
0.272,2.0585191389574,102.19773143324,1.8905088231652
0.273,2.0586996313645,102.20665111125,1.8906738492848
0.274,2.0588792967129,102.21553366224,1.8908381863137
0.275,2.059058212992,102.22438259349,1.8910018993443
0.276,2.059236450962,102.23320108718,1.8911650474352
0.277,2.059414074824,102.24199203049,1.8913276841704
0.278,2.0595911428282,102.25075804302,1.8914898581673
0.279,2.0597677078252,102.25950150152,1.8916516135366
0.28,2.0599438177668,102.26822456244,1.8918129903002
0.281,2.0601195161598,102.27692918235,1.8919740247703
0.282,2.0602948424783,102.28561713643,1.8921347498933
0.283,2.0604698325375,102.29429003534,1.8922951955614
0.284,2.0606445188326,102.30294934044,1.8924553888962
0.285,2.060818930847,102.31159637764,1.8926153545056
0.286,2.060993095331,102.32023234992,1.892775114716
0.287,2.0611670365554,102.32885834878,1.8929346897848
0.288,2.0613407765413,102.33747536454,1.8930940980915
0.289,2.0615143352688,102.34608429574,1.893253356312
0.29,2.0616877308659,102.3546859576,1.8934124795766
0.291,2.0618609797803,102.36328108982,1.8935714816132
0.292,2.0620340969352,102.37187036352,1.8937303748772
0.293,2.0622070958707,102.38045438759,1.8938891706695
0.294,2.0623799888717,102.38903371453,1.8940478792437
0.295,2.0625527870847,102.39760884561,1.894206509903
0.296,2.0627255006228,102.40618023563,1.8943650710881
0.297,2.0628981386619,102.41474829725,1.8945235704577
0.298,2.0630707095275,102.42331340487,1.8946820149606
0.299,2.0632432207734,102.43187589821,1.8948404109013
0.3,2.0634156792533,102.44043608549,1.8949987640004
0.301,2.0635880911858,102.44899424638,1.8951570794482
0.302,2.0637604622129,102.4575506346,1.8953153619537
0.303,2.0639327974541,102.4661054804,1.8954736157898
0.304,2.0641051015542,102.47465899266,1.8956318448335
0.305,2.0642773787276,102.4832113609,1.8957900526021
0.306,2.0644496327981,102.49176275711,1.8959482422874
0.307,2.0646218672354,102.50031333731,1.8961064167852
0.308,2.0647940851874,102.50886324309,1.8962645787231
0.309,2.0649662895104,102.5174126029,1.8964227304851
0.31,2.0651384827962,102.52596153329,1.8965808742344
0.311,2.0653106673962,102.53451014002,1.8967390119337
0.312,2.0654828454442,102.54305851905,1.8968971453639
0.313,2.065655018876,102.55160675745,1.8970552761411
0.314,2.0658271894485,102.56015493423,1.8972134057315
0.315,2.0659993587555,102.56870312107,1.8973715354654
0.316,2.0661715282433,102.57725138302,1.8975296665502
0.317,2.0663436992242,102.5857997791,1.8976878000812
0.318,2.0665158728891,102.59434836287,1.8978459370523
0.319,2.0666880503184,102.60289718292,1.8980040783656
0.32,2.0668602324926,102.61144628335,1.8981622248395
0.321,2.0670324203014,102.61999570419,1.8983203772165
0.322,2.0672046145522,102.62854548174,1.8984785361708
0.323,2.0673768159776,102.63709564896,1.8986367023137
0.324,2.0675490252424,102.64564623574,1.8987948762003
0.325,2.0677212429499,102.65419726923,1.8989530583343
0.326,2.0678934696476,102.66274877405,1.8991112491726
0.327,2.0680657058323,102.67130077255,1.8992694491301
0.328,2.068237951955,102.67985328502,1.8994276585831
0.329,2.0684102084247,102.68840632986,1.8995858778734
0.33,2.0685824756131,102.69695992378,1.899744107311
0.331,2.068754753857,102.70551408194,1.8999023471773
0.332,2.0689270434625,102.71406881812,1.9000605977278
0.333,2.0690993447073,102.72262414479,1.9002188591944
0.334,2.0692716578434,102.73118007331,1.9003771317875
0.335,2.0694439830995,102.73973661397,1.9005354156982
0.336,2.0696163206836,102.74829377611,1.9006937110999
0.337,2.0697886707841,102.75685156823,1.9008520181503
0.338,2.0699610335721,102.76540999803,1.9010103369922
0.339,2.0701334092032,102.77396907249,1.9011686677555
0.34,2.0703057978185,102.78252879798,1.901327010558
0.341,2.0704781995462,102.79108918027,1.9014853655069
0.342,2.0706506145026,102.79965022458,1.9016437326994
0.343,2.0708230427935,102.8082119357,1.9018021122238
0.344,2.070995484515,102.81677431793,1.9019605041605
0.345,2.0711679397541,102.82533737522,1.9021189085822
0.346,2.0713404085904,102.83390111112,1.9022773255554
0.347,2.0715128910956,102.84246552888,1.9024357551401
0.348,2.0716853873353,102.85103063146,1.902594197391
0.349,2.0718578973691,102.85959642153,1.9027526523582
0.35,2.072030421251,102.86816290153,1.9029111200866
0.351,2.0722029590302,102.87673007369,1.9030696006176
0.352,2.0723755107515,102.88529794001,1.9032280939885
0.353,2.0725480764556,102.89386650234,1.9033866002334
0.354,2.0727206561795,102.90243576234,1.9035451193834
0.355,2.0728932499569,102.91100572155,1.9037036514667
0.356,2.0730658578186,102.91957638134,1.903862196509
0.357,2.0732384797925,102.92814774298,1.9040207545338
0.358,2.0734111159041,102.93671980762,1.9041793255625
0.359,2.0735837661767,102.94529257632,1.9043379096145
0.36,2.0737564306314,102.95386605002,1.9044965067077
0.361,2.0739291092877,102.96244022962,1.9046551168582
0.362,2.0741018021631,102.97101511589,1.904813740081
0.363,2.0742745092739,102.97959070959,1.9049723763896
0.364,2.0744472306346,102.98816701137,1.9051310257963
0.365,2.0746199662589,102.99674402186,1.9052896883127
0.366,2.0747927161592,103.0053217416,1.905448363949
0.367,2.0749654803465,103.01390017111,1.9056070527148
0.368,2.0751382588315,103.02247931088,1.905765754619
0.369,2.0753110516237,103.03105916132,1.9059244696695
0.37,2.0754838587317,103.03963972285,1.9060831978738
0.371,2.0756566801638,103.04822099583,1.9062419392388
