time,amplitude,fluxintegral,power
6.25e-05,1,49.577376709398,0.91322182521825
0.000125,1.0000009440669,49.577556944865,0.913225339224
0.0001875,1.0000037585831,49.577844225341,0.91323083826864
0.00025,1.0000084168845,49.57823287813,0.91323822096929
0.0003125,1.0000148938227,49.57871859458,0.91324740957818
0.000375,1.0000231653631,49.579297998052,0.91325834224739
0.0004375,1.0000332083216,49.57996835134,0.91327096816911
0.0005,1.0000450001785,49.580727366092,0.91328524442522
0.0005625,1.0000585189621,49.581573077134,0.91330113389293
0.000625,1.0000737431631,49.582503757051,0.91331860379999
0.0006875,1.000090651677,49.583517857001,0.91333762470511
0.00075,1.0001092237626,49.584613964817,0.91335816976095
0.0008125,1.0001294390114,49.58579077468,0.91338021416902
0.000875,1.0001512773259,49.58704706492,0.91340373477166
0.0009375,1.000174718902,49.58838168141,0.91342870974073
0.001,1.000199744216,49.589793525059,0.91345511833836
0.0010625,1.0002263340139,49.591281542232,0.91348294073086
0.001125,1.0002544693025,49.592844717368,0.91351215784313
0.0011875,1.0002841313429,49.594482067243,0.91354275124408
0.00125,1.0003153016432,49.596192636441,0.91357470305525
0.0013125,1.0003479619539,49.597975493827,0.91360799587909
0.001375,1.0003820942626,49.599829729693,0.91364261274053
0.0014375,1.0004176807898,49.601754453526,0.91367853704101
0.0015,1.000454703985,49.603748792181,0.91371575252072
0.0015625,1.0004931465224,49.605811888423,0.91375424322854
0.001625,1.0005329912981,49.607942899746,0.91379399349734
0.0016875,1.0005742214263,49.610140997389,0.91383498792387
0.00175,1.0006168202362,49.612405365537,0.91387721135199
0.0018125,1.0006607712688,49.614735200668,0.91392064885933
0.001875,1.0007060582744,49.617129710995,0.91396528574576
0.0019375,1.0007526652093,49.619588115998,0.91401110752374
0.002,1.0008005762329,49.622109646026,0.91405809991035
0.0020625,1.0008497757057,49.62469354196,0.91410624882026
0.002125,1.0009002481858,49.627339054321,0.91415554035461
0.0021875,1.0009519784266,49.630045445137,0.9142059608121
0.00225,1.0010049513746,49.63281198497,0.91425749666807
0.0023125,1.0010591521664,49.635637954148,0.91431013457474
0.002375,1.0011145661264,49.638522642384,0.91436386135883
0.0024375,1.0011711787646,49.641465348571,0.91441866401785
0.0025,1.0012289757736,49.644465380623,0.9144745297171
0.0025625,1.0012879430271,49.647522055327,0.91453144578681
0.002625,1.0013480665769,49.650634698196,0.9145893997193
0.0026875,1.0014093326508,49.653802643336,0.9146483791666
0.00275,1.0014717276507,49.657025233335,0.91470837193806
0.0028125,1.0015352381496,49.660301819116,0.91476936599788
0.002875,1.0015998508904,49.663631759837,0.91483134946304
0.0029375,1.0016655527829,49.667014422775,0.91489431060113
0.003,1.001732330902,49.670449183207,0.91495823782824
0.0030625,1.0018001724858,49.673935424317,0.91502311970705
0.003125,1.0018690649331,49.677472537073,0.91508894494471
0.0031875,1.0019389958016,49.681059920139,0.91515570239107
0.00325,1.0020099528059,49.684696979768,0.91522338103674
0.0033125,1.0020819238154,49.688383129703,0.91529197001119
0.003375,1.0021548968525,49.692117791083,0.91536145858113
0.0034375,1.0022288600903,49.695900392342,0.91543183614849
0.0035,1.0023038018511,49.699730369121,0.91550309224886
0.0035625,1.0023797106043,49.703607164171,0.91557521654968
0.003625,1.0024565749644,49.707530227265,0.91564819884862
0.0036875,1.0025343836894,49.711499015106,0.91572202907178
0.00375,1.0026131256789,49.715512991241,0.91579669727222
0.0038125,1.0026927899723,49.719571625967,0.91587219362819
0.003875,1.0027733657468,49.723674396255,0.91594850844165
0.0039375,1.0028548423162,49.727820785659,0.9160256321366
0.004,1.0029372091285,49.732010284234,0.91610355525761
0.0040625,1.0030204557647,49.736242388448,0.91618226846822
0.004125,1.0031045719368,49.740516601114,0.91626176254948
0.0041875,1.0031895474864,49.744832431289,0.91634202839834
0.00425,1.0032753723828,49.749189394213,0.91642305702636
0.0043125,1.0033620367215,49.753587011224,0.91650483955814
0.004375,1.0034495307227,49.758024809676,0.91658736722986
0.0044375,1.0035378447296,49.762502322873,0.91667063138799
0.0045,1.0036269692067,49.767019089983,0.91675462348777
0.0045625,1.0037168947386,49.771574655967,0.91683933509185
0.004625,1.0038076120282,49.77616857151,0.91692475786898
0.0046875,1.0038991118953,49.780800392944,0.91701088359261
0.00475,1.0039913852751,49.785469682175,0.91709770413961
0.0048125,1.0040844232168,49.790176006618,0.91718521148892
0.004875,1.0041782168821,49.794918939122,0.91727339772028
0.0049375,1.0042727575437,49.799698057905,0.91736225501294
0.005,1.004368036584,49.804512946481,0.91745177564443
0.0050625,1.0044640454938,49.8093631936,0.91754195198929
0.005125,1.0045607758707,49.814248393173,0.91763277651778
0.0051875,1.0046582194178,49.819168144218,0.91772424179482
0.00525,1.0047563679426,49.824122050783,0.91781634047866
0.0053125,1.0048552133553,49.82910972189,0.91790906531974
0.005375,1.0049547476678,49.83413077147,0.91800240915951
0.0054375,1.0050549629924,49.839184818302,0.91809636492933
0.0055,1.0051558515403,49.84427148595,0.91819092564926
0.0055625,1.0052574056205,49.849390402702,0.91828608442702
0.005625,1.0053596176387,49.854541201515,0.91838183445679
0.0056875,1.0054624800957,49.859723519947,0.91847816901816
0.00575,1.0055659855865,49.864937000108,0.91857508147507
0.0058125,1.0056701267992,49.870181288597,0.91867256527473
0.005875,1.0057748965135,49.875456036449,0.91877061394656
0.0059375,1.0058802875997,49.880760899075,0.91886922110115
0.006,1.0059862930177,49.886095536208,0.91896838042921
0.0060625,1.0060929058155,49.891459611852,0.91906808570066
0.006125,1.0062001191285,49.896852794222,0.91916833076351
0.0061875,1.0063079261781,49.902274755697,0.91926910954291
0.00625,1.0064163202708,49.907725172759,0.91937041604018
0.0063125,1.0065252947969,49.913203725952,0.9194722443319
0.006375,1.0066348432298,49.918710099823,0.91957458856887
0.0064375,1.0067449591245,49.92424398287,0.9196774429752
0.0065,1.0068556361169,49.929805067501,0.91978080184744
0.0065625,1.0069668679228,49.935393049976,0.91988465955361
0.006625,1.0070786483367,49.941007630365,0.91998901053235
0.0066875,1.0071909712307,49.946648512494,0.92009384929191
0.00675,1.007303830554,49.952315403898,0.9201991704094
0.0068125,1.0074172203314,49.958008015783,0.92030496852993
0.006875,1.0075311346628,49.963726062969,0.92041123836562
0.0069375,1.0076455677217,49.969469263848,0.92051797469485
0.007,1.0077605137549,49.975237340339,0.92062517236142
0.0070625,1.0078759670812,49.98103001785,0.92073282627374
0.007125,1.0079919220904,49.98684702522,0.92084093140391
0.0071875,1.0081083732429,49.992688094691,0.9209494827871
0.00725,1.0082253150681,49.998552961851,0.92105847552055
0.0073125,1.0083427421642,50.004441365605,0.92116790476294
0.007375,1.0084606491968,50.010353048123,0.92127776573356
0.0074375,1.0085790308987,50.016287754805,0.92138805371156
0.0075,1.0086978820682,50.022245234239,0.9214987640352
0.0075625,1.0088171975689,50.028225238158,0.92160989210103
0.007625,1.0089369723289,50.034227521403,0.92172143336332
0.0076875,1.0090572013394,50.040251841884,0.92183338333312
0.00775,1.0091778796546,50.046297960542,0.92194573757776
0.0078125,1.0092990023906,50.052365641308,0.92205849172001
0.007875,1.0094205647244,50.058454651066,0.92217164143737
0.0079375,1.0095425618936,50.064564759618,0.92228518246146
0.008,1.0096649891951,50.070695739648,0.9223991105773
0.0080625,1.0097878419851,50.076847366679,0.92251342162264
0.008125,1.0099111156774,50.083019419047,0.92262811148727
0.0081875,1.0100348057435,50.089211677861,0.92274317611249
0.00825,1.0101589077115,50.095423926962,0.92285861149022
0.0083125,1.0102834171653,50.101655952898,0.9229744136626
0.008375,1.0104083297442,50.10790754489,0.92309057872127
0.0084375,1.0105336411419,50.114178494789,0.92320710280671
0.0085,1.0106593471062,50.120468597053,0.9233239821077
0.0085625,1.0107854434378,50.126777648708,0.92344121286064
0.008625,1.01091192599,50.13310544932,0.92355879134901
0.0086875,1.0110387906681,50.139451800959,0.92367671390277
0.00875,1.0111660334284,50.14581650817,0.92379497689774
0.0088125,1.0112936502779,50.152199377943,0.92391357675504
0.008875,1.0114216372734,50.158600219679,0.92403250994057
0.0089375,1.0115499905211,50.165018845162,0.92415177296436
0.009,1.0116787061758,50.171455068528,0.92427136238008
0.0090625,1.0118077804405,50.177908706238,0.92439127478449
0.009125,1.0119372095654,50.184379577045,0.92451150681686
0.0091875,1.0120669898479,50.190867501969,0.92463205515846
0.00925,1.0121971176314,50.197372304264,0.92475291653208
0.0093125,1.0123275893051,50.203893809394,0.92487408770137
0.009375,1.0124584013034,50.210431845002,0.92499556547048
0.0094375,1.0125895501052,50.216986240891,0.9251173466835
0.0095,1.0127210322332,50.223556828981,0.92523942822391
0.0095625,1.0128528442539,50.230143443301,0.9253618070142
0.009625,1.0129849827766,50.23674591995,0.92548448001527
0.0096875,1.0131174444529,50.243364097074,0.92560744422596
0.00975,1.013250225976,50.249997814841,0.92573069668266
0.0098125,1.013383324081,50.256646915418,0.92585423445874
0.009875,1.0135167355432,50.263311242941,0.92597805466415
0.0099375,1.0136504571785,50.269990643494,0.92610215444492
0.01,1.0137844858426,50.276684965083,0.92622653098272
0.0100625,1.0139188184302,50.283394057614,0.92635118149449
0.010125,1.0140534518751,50.290117772865,0.92647610323183
0.0101875,1.0141883831492,50.296855964468,0.92660129348074
0.01025,1.0143236092623,50.303608487882,0.92672674956109
0.0103125,1.0144591272616,50.31037520037,0.92685246882624
0.010375,1.0145949342311,50.31715596098,0.92697844866258
0.0104375,1.0147310272912,50.32395063052,0.92710468648919
0.0105,1.0148674035983,50.330759071535,0.92723117975733
0.0105625,1.0150040603444,50.337581148287,0.92735792595009
0.010625,1.0151409947564,50.344416726734,0.92748492258203
0.0106875,1.015278204096,50.351265674509,0.92761216719876
0.01075,1.015415685659,50.358127860895,0.92773965737649
0.0108125,1.0155534367749,50.365003156807,0.92786739072168
0.010875,1.0156914548067,50.371891434774,0.92799536487071
0.0109375,1.0158297371503,50.378792568917,0.92812357748952
0.011,1.015968281234,50.385706434928,0.92825202627313
0.0110625,1.0161070845184,50.392632910052,0.9283807089454
0.011125,1.0162461444956,50.399571873066,0.92850962325853
0.0111875,1.0163854586892,50.406523204262,0.92863876699289
0.01125,1.0165250246537,50.413486785427,0.92876813795652
0.0113125,1.016664839974,50.420462499821,0.92889773398481
0.011375,1.0168049022653,50.427450232166,0.92902755294022
0.0114375,1.0169452091725,50.43444986862,0.92915759271187
0.0115,1.0170857583699,50.441461296764,0.92928785121522
0.0115625,1.017226547561,50.448484405583,0.92941832639183
0.011625,1.0173675744778,50.45551908545,0.92954901620896
0.0116875,1.0175088368806,50.462565228105,0.92967991865919
0.01175,1.0176503325579,50.469622726639,0.92981103176021
0.0118125,1.0177920593256,50.476691475482,0.92994235355448
0.011875,1.0179340150269,50.483771370379,0.93007388210887
0.0119375,1.018076197532,50.490862308378,0.93020561551444
0.012,1.0182186047378,50.497964187813,0.93033755188605
0.0120625,1.0183612345672,50.505076908288,0.93046968936212
0.012125,1.0185040849692,50.512200370658,0.93060202610428
0.0121875,1.0186471539185,50.519334477024,0.93073456029722
0.01225,1.0187904394149,50.5264791307,0.93086729014824
0.0123125,1.0189339394833,50.533634236217,0.93100021388704
0.012375,1.0190776521733,50.540799699291,0.93113332976543
0.0124375,1.0192215755589,50.547975426822,0.93126663605709
0.0125,1.0193657077379,50.555161326869,0.93140013105722
0.0125625,1.0195100468322,50.562357308641,0.93153381308235
0.012625,1.0196545909869,50.569563282481,0.93166768047004
0.0126875,1.0197993383703,50.576779159851,0.93180173157861
0.01275,1.0199442871739,50.584004853323,0.93193596478691
0.0128125,1.0200894356114,50.591240276559,0.93207037849404
0.012875,1.020234781919,50.5984853443,0.93220497111911
0.0129375,1.020380324355,50.605739972355,0.93233974110101
0.013,1.0205260611994,50.61300407758,0.93247468689808
0.0130625,1.0206719907535,50.620277577876,0.932609806988
0.013125,1.0208181113402,50.627560392166,0.93274509986742
0.0131875,1.0209644213031,50.63485244039,0.93288056405183
0.01325,1.0211109190066,50.642153643485,0.93301619807526
0.0133125,1.0212576028356,50.64946392338,0.93315200049006
0.013375,1.021404471195,50.656783202978,0.93328796986669
0.0134375,1.0215515225099,50.66411140615,0.93342410479354
0.0135,1.0216987552249,50.671448457714,0.93356040387654
0.0135625,1.0218461678041,50.678794283432,0.93369686573919
0.013625,1.0219937587308,50.68614880999,0.93383348902206
0.0136875,1.0221415265074,50.693511964998,0.93397027238286
0.01375,1.0222894696548,50.700883676966,0.93410721449603
0.0138125,1.0224375867125,50.7082638753,0.93424431405258
0.013875,1.0225858762384,50.715652490289,0.93438156975992
0.0139375,1.0227343368083,50.723049453099,0.9345189803417
0.014,1.022882967016,50.730454695754,0.93465654453747
0.0140625,1.0230317654725,50.737868151125,0.93479426110258
0.014125,1.0231807308067,50.74528975293,0.93493212880794
0.0141875,1.0233298616642,50.752719435712,0.93507014643985
0.01425,1.0234791567079,50.760157134838,0.93520831279989
0.0143125,1.0236286146173,50.767602786482,0.93534662670454
0.014375,1.0237782340884,50.775056327616,0.93548508698515
0.0144375,1.0239280138335,50.782517696006,0.93562369248776
0.0145,1.0240779525813,50.789986830193,0.93576244207279
0.0145625,1.0242280490761,50.797463669491,0.93590133461496
0.014625,1.0243783020781,50.804948153975,0.93604036900314
0.0146875,1.024528710363,50.812440224468,0.93617954414007
0.01475,1.0246792727218,50.819939822537,0.93631885894226
0.0148125,1.0248299879607,50.827446890485,0.93645831233986
0.014875,1.0249808549009,50.834961371332,0.93659790327637
0.0149375,1.0251318723784,50.842483208817,0.93673763070858
0.015,1.0252830392436,50.850012347383,0.93687749360633
0.0150625,1.0254343543616,50.857548732171,0.93701749095241
0.015125,1.0255858166115,50.865092309013,0.93715762174243
0.0151875,1.0257374248866,50.872643024413,0.93729788498447
0.01525,1.0258891780941,50.880200825557,0.93743827969922
0.0153125,1.0260410751547,50.887765660285,0.93757880491956
0.015375,1.0261931150031,50.895337477099,0.93771945969057
0.0154375,1.0263452965868,50.902916225143,0.93786024306926
0.0155,1.0264976188669,50.910501854204,0.93800115412459
0.0155625,1.0266500808176,50.918094314696,0.93814219193715
0.015625,1.0268026814257,50.925693557659,0.93828335559909
0.0156875,1.0269554196909,50.93329953475,0.93842464421404
0.01575,1.0271082946255,50.940912198229,0.93856605689678
0.0158125,1.0272613052542,50.948531500961,0.93870759277335
0.015875,1.0274144506139,50.956157396402,0.93884925098071
0.0159375,1.0275677297536,50.963789838593,0.93899103066669
0.016,1.0277211417343,50.971428782157,0.9391329309899
0.0160625,1.027874685629,50.979074182283,0.93927495111947
0.016125,1.028028360522,50.98672599473,0.93941709023505
0.0161875,1.0281821655095,50.99438417581,0.93955934752658
0.01625,1.0283360996988,51.002048682388,0.93970172219426
0.0163125,1.0284901622086,51.009719471871,0.93984421344832
0.016375,1.0286443521687,51.017396502204,0.93998682050898
0.0164375,1.0287986687197,51.025079731863,0.94012954260629
0.0165,1.0289531110132,51.032769119845,0.94027237898
0.0165625,1.0291076782116,51.040464625669,0.94041532887946
0.016625,1.0292623694876,51.048166209361,0.9405583915635
0.0166875,1.0294171840244,51.055873831453,0.94070156630031
0.01675,1.0295721210158,51.063587452975,0.94084485236731
0.0168125,1.0297271796653,51.071307035451,0.94098824905106
0.016875,1.0298823591869,51.079032540889,0.94113175564712
0.0169375,1.0300376588043,51.08676393178,0.94127537145998
0.017,1.030193077751,51.094501171086,0.94141909580293
0.0170625,1.0303486152702,51.102244222242,0.94156292799793
0.017125,1.0305042706148,51.10999304914,0.94170686737553
0.0171875,1.0306600430471,51.117747616136,0.94185091327475
0.01725,1.0308159318387,51.12550788803,0.94199506504298
0.0173125,1.0309719362703,51.133273830075,0.94213932203588
0.017375,1.0311280556319,51.141045407958,0.94228368361729
0.0174375,1.0312842892224,51.148822587807,0.9424281491591
0.0175,1.0314406363497,51.156605336176,0.94257271804118
0.0175625,1.0315970963303,51.164393620043,0.94271738965127
0.017625,1.0317536684894,51.172187406807,0.94286216338485
0.0176875,1.031910352161,51.179986664281,0.94300703864513
0.01775,1.0320671466872,51.187791360688,0.94315201484288
0.0178125,1.0322240514187,51.195601464649,0.94329709139631
0.017875,1.0323810657144,51.203416945191,0.94344226773111
0.0179375,1.0325381889412,51.211237771732,0.94358754328023
0.018,1.0326954204743,51.219063914079,0.94373291748386
0.0180625,1.0328527596966,51.226895342423,0.94387838978928
0.018125,1.033010205999,51.234732027339,0.94402395965086
0.0181875,1.0331677587803,51.242573939771,0.94416962652992
0.01825,1.0333254174465,51.250421051036,0.94431538989459
0.0183125,1.0334831814117,51.258273332819,0.94446124921985
0.018375,1.0336410500971,51.266130757164,0.94460720398737
0.0184375,1.0337990229314,51.273993296471,0.9447532536854
0.0185,1.0339570993507,51.281860923499,0.94489939780883
0.0185625,1.034115278798,51.289733611344,0.94504563585882
0.018625,1.0342735607238,51.297611333455,0.94519196734309
0.0186875,1.0344319445854,51.30549406362,0.94533839177562
0.01875,1.0345904298471,51.313381775961,0.94548490867657
0.0188125,1.03474901598,51.32127444493,0.94563151757227
0.018875,1.0349077024619,51.329172045309,0.94577821799511
0.0189375,1.0350664887776,51.337074552202,0.9459250094835
0.019,1.0352253744182,51.344981941034,0.94607189158179
0.0190625,1.0353843588814,51.352894187544,0.94621886384013
0.019125,1.0355434416714,51.360811267784,0.94636592581447
0.0191875,1.0357026222988,51.368733158112,0.9465130770665
0.01925,1.0358619002804,51.376659835195,0.94666031716354
0.0193125,1.0360212751392,51.384591275994,0.94680764567846
0.019375,1.0361807464043,51.392527457771,0.94695506218964
0.0194375,1.0363403136111,51.400468358079,0.94710256628089
0.0195,1.0364999763008,51.408413954761,0.9472501575414
0.0195625,1.0366597340205,51.416364225949,0.94739783556567
0.019625,1.0368195863231,51.424319150054,0.94754559995345
0.0196875,1.0369795327675,51.432278705767,0.94769345030964
0.01975,1.0371395729181,51.440242872055,0.94784138624424
0.0198125,1.0372997063449,51.448211628156,0.94798940737231
0.019875,1.0374599326236,51.45618495358,0.94813751331394
0.0199375,1.0376202513353,51.464162828099,0.94828570369409
0.02,1.0377806620666,51.47214523175,0.94843397814261
0.0200625,1.0379411644095,51.480132144831,0.94858233629418
0.020125,1.038101757961,51.488123547891,0.94873077778819
0.0201875,1.0382624423238,51.496119421734,0.94887930226873
0.02025,1.0384232171053,51.504119747417,0.94902790938455
0.0203125,1.0385840819183,51.512124506238,0.94917659878891
0.020375,1.0387450363806,51.520133679747,0.9493253701397
0.0204375,1.0389060801148,51.528147249725,0.94947422309917
0.0205,1.0390672127486,51.536165198198,0.94962315733405
0.0205625,1.0392284339146,51.544187507426,0.94977217251539
0.020625,1.0393897432501,51.552214159899,0.94992126831857
0.0206875,1.039551140397,51.560245138337,0.9500704444232
0.02075,1.0397126250022,51.568280425688,0.95021970051314
0.0208125,1.039874196717,51.576320005122,0.95036903627631
0.020875,1.0400358551973,51.584363860032,0.95051845140482
0.0209375,1.0401976001036,51.592411974028,0.95066794559478
0.021,1.0403594311007,51.600464330933,0.95081751854629
0.0210625,1.0405213478581,51.60852091479,0.95096716996346
0.021125,1.0406833500492,51.616581709846,0.95111689955421
0.0211875,1.0408454373522,51.624646700559,0.9512667070304
0.02125,1.0410076094492,51.632715871593,0.95141659210771
0.0213125,1.0411698660266,51.640789207813,0.95156655450551
0.021375,1.0413322067749,51.648866694284,0.9517165939469
0.0214375,1.0414946313888,51.656948316271,0.95186671015869
0.0215,1.041657139567,51.665034059236,0.95201690287132
0.0215625,1.0418197310121,51.673123908829,0.95216717181874
0.021625,1.0419824054308,51.681217850893,0.95231751673851
