time,amplitude,fluxintegral,power
0.000390625,1,49.581062123139,0.91329117361693
0.00078125,1.0000359314752,49.585100309486,0.91336733990059
0.001171875,1.0001400770049,49.593968250155,0.91353315539144
0.0015625,1.0003073007923,49.605723092348,0.91375257906788
0.001953125,1.0005329373283,49.620134216242,0.91402128137979
0.00234375,1.0008127116078,49.63700289509,0.91433555783339
0.002734375,1.0011426855598,49.656150696796,0.91469209490391
0.003125,1.0015192233834,49.677413843106,0.91508785629867
0.003515625,1.0019389663777,49.700640955585,0.91552003637316
0.00390625,1.0023988115787,49.7256919707,0.91598603875806
0.004296875,1.0028958922972,49.752437357658,0.91648346192662
0.0046875,1.0034275600967,49.780757389806,0.91701008593956
0.005078125,1.0039913680932,49.810541432221,0.91756385938272
0.00546875,1.0045850555131,49.841687258295,0.91814288674615
0.005859375,1.0052065334318,49.874100408221,0.91874541653813
0.00625,1.0058538716123,49.907693594103,0.91936983025245
0.006640625,1.0065252863615,49.942386150898,0.92001463218506
0.00703125,1.0072191293262,49.978103530149,0.92067844004555
0.007421875,1.0079338771543,50.014776833073,0.92135997629952
0.0078125,1.0086681219541,50.052342379778,0.922058060181
0.008203125,1.0094205624897,50.090741311691,0.9227716003209
0.00859375,1.0101899960541,50.129919224598,0.92349958794302
0.008984375,1.010975310969,50.169825829899,0.92424109058305
0.009375,1.0117754796603,50.210414641887,0.92499524629036
0.009765625,1.0125895522667,50.251642689041,0.92576125827477
0.01015625,1.0134166507388,50.293470247472,0.92653838996421
0.010546875,1.0142559633909,50.335860594792,0.92732596044098
0.0109375,1.015106739871,50.378779782846,0.92812334022782
0.011328125,1.0159682865152,50.422196427829,0.92892994739625
0.01171875,1.0168399620589,50.46608151646,0.92974524397278
0.012109375,1.0177211736748,50.51040822696,0.93056873261931
0.0125,1.0186113733148,50.555151763699,0.93139995356741
0.012890625,1.0195100543305,50.600289204458,0.932238481786
0.01328125,1.0204167483515,50.645799359327,0.93308392436529
0.013671875,1.0213310224024,50.691662640364,0.93393591809977
0.0140625,1.0222524762384,50.737860941141,0.9347941272549
0.014453125,1.0231807398845,50.78437752549,0.93565824150419
0.01484375,1.0241154713613,50.831196924667,0.93652797402237
0.015234375,1.0250563545842,50.878304842332,0.93740305972354
0.015625,1.026003097421,50.925688066745,0.93828325363313
0.016015625,1.0269554298984,50.973334389604,0.93916832938286
0.01640625,1.0279131025428,51.021232531033,0.94005807782005
0.016796875,1.028875884848,51.069372070241,0.94095230572169
0.0171875,1.0298435638584,51.117743381441,0.94185083460631
0.017578125,1.0308159428588,51.166337574573,0.94275349963489
0.01796875,1.0317928401644,51.215146440538,0.9436601485953
0.018359375,1.0327740880007,51.264162400544,0.94457064096307
0.01875,1.0337595314691,51.313378459263,0.94548484703285
0.019140625,1.0347490275897,51.36278816153,0.94640264711547
0.01953125,1.0357424444165,51.412385552286,0.94732393079519
0.019921875,1.036739660219,51.462165139539,0.9482485962429
0.0203125,1.0377405627256,51.512121860105,0.94917654958089
0.020703125,1.0387450484231,51.562251047915,0.95010770429516
0.02109375,1.03975302191,51.612548404707,0.95104198069199
0.021484375,1.0407643952972,51.663009972902,0.95197930539503
0.021875,1.0417790876537,51.713632110522,0.9529196108801
0.022265625,1.042797024495,51.76441146798,0.95386283504492
0.02265625,1.0438181373078,51.815344966595,0.9548089208107
0.023046875,1.044842363112,51.866429778726,0.95575781575374
0.0234375,1.0458696440543,51.917663309382,0.95670947176444
0.023828125,1.0468999270329,51.969043179193,0.95766384473157
0.02421875,1.0479331633493,52.020567208672,0.9586208942504
0.024609375,1.048969308387,52.072233403625,0.95958058335217
0.025,1.0500083213135,52.124039941659,0.96054287825392
0.025390625,1.0510501648043,52.175985159691,0.96150774812687
0.02578125,1.0520948047885,52.22806754238,0.96247516488194
0.026171875,1.0531422102115,52.280285711423,0.96344510297119
0.0265625,1.0541923528173,52.332638415637,0.964417539204
0.026953125,1.0552452069452,52.385124521787,0.96539245257694
0.02734375,1.056300749343,52.437743006083,0.96636982411609
0.027734375,1.0573589589928,52.490492946303,0.96734963673106
0.028125,1.0584198169507,52.543373514515,0.96833187507994
0.028515625,1.0594833061974,52.596383970317,0.96931652544396
0.02890625,1.0605494115009,52.649523654586,0.97030357561165
0.029296875,1.0616181192882,52.702791983691,0.97129301477142
0.0296875,1.0626894175275,52.756188444119,0.97228483341202
0.030078125,1.0637632956182,52.809712587509,0.97327902323042
0.03046875,1.0648397442898,52.863364026055,0.97427557704647
0.030859375,1.0659187555075,52.917142428227,0.97527448872371
0.03125,1.0670003223852,52.971047514824,0.97627575309609
0.031640625,1.0680844391048,53.025079055314,0.97727936590008
0.03203125,1.0691711008415,53.079236864441,0.97828532371183
0.032421875,1.0702603036943,53.133520799072,0.97929362388865
0.0328125,1.0713520446217,53.187930755287,0.98030426451508
0.033203125,1.0724463213826,53.242466665686,0.98131724435286
0.03359375,1.0735431324808,53.297128496877,0.9823325627945
0.033984375,1.0746424771138,53.351916247146,0.98335021981999
0.034375,1.0757443551255,53.40682994433,0.98437021595733
0.034765625,1.0768487669626,53.461869643807,0.98539255224529
0.03515625,1.0779557136336,53.517035426651,0.98641723019925
0.035546875,1.0790651966708,53.572327397922,0.98744425177939
0.0359375,1.080177218096,53.627745685076,0.98847361936127
0.036328125,1.0812917803874,53.68329043649,0.98950533570848
0.03671875,1.0824088864498,53.738961820103,0.99053940394739
0.037109375,1.083528539587,53.794760022146,0.99157582754368
0.0375,1.0846507434755,53.850685245969,0.99261461028053
0.037890625,1.0857755021407,53.90673771096,0.99365575623854
0.03828125,1.086902819935,53.962917651525,0.99469926977691
0.038671875,1.0880327015167,54.019225316164,0.99574515551624
0.0390625,1.0891651518311,54.075660966595,0.99679341832232
0.039453125,1.0903001760931,54.132224876957,0.9978440632913
0.03984375,1.0914377797703,54.188917333061,0.99889709573589
0.040234375,1.0925779685682,54.245738631701,0.99995252117248
0.040625,1.0937207484156,54.302689080012,1.0010103453093
0.041015625,1.0948661254522,54.359768994879,1.0020705740354
0.04140625,1.0960141060159,54.416978702381,1.0031332134105
0.041796875,1.0971646966317,54.474318537283,1.0041982696554
0.0421875,1.0983179040014,54.531788842569,1.0052657491433
0.042578125,1.0994737349938,54.589389968996,1.0063356583917
0.04296875,1.100632196636,54.647122274687,1.0074080040546
0.043359375,1.1017932961047,54.704986124759,1.0084827929161
0.04375,1.1029570407188,54.762981890973,1.0095600318832
0.044140625,1.1041234379322,54.821109951407,1.0106397279802
0.04453125,1.1052924953272,54.879370690167,1.0117218883434
0.044921875,1.1064642206083,54.937764497093,1.0128065202154
0.0453125,1.1076386215967,54.996291767514,1.0138936309406
0.045703125,1.1088157062249,55.054952902009,1.0149832279609
0.04609375,1.1099954825319,55.113748306183,1.0160753188114
0.046484375,1.1111779586587,55.172678390464,1.0171699111167
0.046875,1.1123631428442,55.231743569919,1.0182670125876
0.047265625,1.1135510434212,55.290944264072,1.0193666310175
0.04765625,1.114741668813,55.35028089675,1.0204687742797
0.048046875,1.1159350275299,55.40975389593,1.0215734503245
0.0484375,1.1171311281663,55.469363693601,1.0226806671767
0.048828125,1.1183299793981,55.529110725638,1.0237904329332
0.04921875,1.1195315899796,55.588995431689,1.024902755761
0.049609375,1.1207359687414,55.649018255057,1.0260176438948
0.05,1.1219431245884,55.709179642609,1.0271351056356
0.050390625,1.1231530664973,55.769480044682,1.0282551493487
0.05078125,1.124365803515,55.829919914991,1.0293777834622
0.051171875,1.1255813447567,55.890499710565,1.0305030164658
0.0515625,1.1267996994047,55.951219891667,1.0316308569089
0.051953125,1.1280208767065,56.012080921725,1.0327613134001
0.05234375,1.1292448859734,56.073083267279,1.0338943946055
0.052734375,1.1304717365799,56.134227397926,1.035030109248
0.053125,1.131701437962,56.195513786267,1.0361684661063
0.053515625,1.1329339996162,56.256942907857,1.037309474014
0.05390625,1.1341694310989,56.318515241175,1.0384531418589
0.054296875,1.1354077420252,56.380231267572,1.0395994785821
0.0546875,1.1366489420684,56.442091471248,1.0407484931778
0.055078125,1.137893040959,56.504096339213,1.0419001946921
0.05546875,1.1391400484844,56.566246361266,1.0430545922232
0.055859375,1.1403899744879,56.628542029963,1.0442116949202
0.05625,1.1416428288688,56.690983840603,1.0453715119834
0.056640625,1.1428986215812,56.753572291199,1.0465340526633
0.05703125,1.1441573626342,56.816307882467,1.0476993262606
0.057421875,1.1454190620912,56.879191117807,1.0488673421261
0.0578125,1.1466837300696,56.942222503289,1.0500381096598
0.058203125,1.147951376741,57.005402547648,1.0512116383115
0.05859375,1.14922201233,57.068731762266,1.0523879375801
0.058984375,1.150495647115,57.132210661171,1.0535670170135
0.059375,1.1517722914275,57.195839761025,1.0547488862087
0.059765625,1.1530519556519,57.259619581119,1.0559335548114
0.06015625,1.1543346502257,57.323550643377,1.0571210325162
0.060546875,1.1556203856393,57.387633472345,1.0583113290665
0.0609375,1.1569091724358,57.451868595191,1.0595044542543
0.061328125,1.1582010212112,57.516256541708,1.0607004179205
0.06171875,1.1594959426142,57.580797844317,1.0618992299546
0.062109375,1.1607939473464,57.645493038061,1.063100900295
0.0625,1.1620950461622,57.710342660613,1.0643054389287
0.062890625,1.1633992498689,57.775347252281,1.065512855892
0.06328125,1.1647065693266,57.840507356007,1.0667231612698
0.063671875,1.1660170154485,57.905823517375,1.0679363651962
0.0640625,1.1673305992011,57.97129628462,1.0691524778545
0.064453125,1.168647331604,58.036926208631,1.0703715094774
0.06484375,1.1699672237304,58.102713842959,1.071593470347
0.065234375,1.1712902867066,58.168659743825,1.0728183707949
0.065625,1.172616531713,58.234764470127,1.0740462212025
0.066015625,1.1739459699837,58.301028583452,1.0752770320012
0.06640625,1.1752786128068,58.367452648079,1.0765108136723
0.066796875,1.1766144715246,58.434037231,1.0777475767475
0.0671875,1.1779535575339,58.500782901915,1.0789873318089
0.067578125,1.179295882286,58.567690233262,1.0802300894893
0.06796875,1.1806414572871,58.634759800209,1.0814758604724
0.068359375,1.1819902940985,58.701992180677,1.0827246554929
0.06875,1.1833424043367,58.769387955348,1.0839764853368
0.069140625,1.1846977996737,58.836947707678,1.0852313608418
0.06953125,1.1860564918373,58.904672023912,1.086489292897
0.069921875,1.1874184926113,58.972561493092,1.0877502924439
0.0703125,1.1887838138359,59.040616707073,1.0890143704761
0.070703125,1.1901524674076,59.108838260539,1.0902815380395
0.07109375,1.19152446528,59.177226751013,1.0915518062331
0.071484375,1.1928998194635,59.245782778868,1.0928251862087
0.071875,1.194278542026,59.314506947352,1.0941016891714
0.072265625,1.1956606450932,59.383399862591,1.0953813263799
0.07265625,1.1970461408485,59.452462133612,1.0966641091468
0.073046875,1.1984350415337,59.521694372351,1.0979500488386
0.0734375,1.199827359449,59.59109719368,1.0992391568763
0.073828125,1.2012231069536,59.660671215404,1.1005314447357
0.07421875,1.2026222964659,59.730417058299,1.1018269239475
0.074609375,1.2040249404635,59.800335346107,1.1031256060975
0.075,1.2054310514842,59.870426705565,1.1044275028272
0.075390625,1.2068406421257,59.940691766419,1.1057326258341
0.07578125,1.208253725046,60.011131161438,1.1070409868718
0.076171875,1.2096703129642,60.081745526431,1.1083525977501
0.0765625,1.2110904186603,60.152535500271,1.1096674703361
0.076953125,1.2125140549759,60.223501724894,1.1109856165536
0.07734375,1.2139412348143,60.29464484534,1.1123070483841
0.077734375,1.2153719711409,60.365965509755,1.1136317778667
0.078125,1.2168062769838,60.437464369412,1.1149598170988
0.078515625,1.2182441654338,60.50914207873,1.1162911782361
0.07890625,1.2196856496449,60.580999295289,1.1176258734929
0.079296875,1.2211307428347,60.653036679852,1.1189639151428
0.0796875,1.2225794582849,60.725254896383,1.1203053155189
0.080078125,1.2240318093411,60.797654612062,1.1216500870138
0.08046875,1.2254878094141,60.870236497307,1.1229982420805
0.080859375,1.2269474719793,60.943001225793,1.1243497932325
0.08125,1.2284108105778,61.015949474469,1.1257047530438
0.081640625,1.2298778388164,61.089081923575,1.1270631341499
0.08203125,1.2313485703682,61.162399256669,1.1284249492477
0.082421875,1.2328230189726,61.235902160634,1.1297902110959
0.0828125,1.2343011984363,61.309591325714,1.1311589325158
0.083203125,1.2357831226332,61.38346744552,1.1325311263911
0.08359375,1.2372688055051,61.457531217057,1.1339068056685
0.083984375,1.2387582610617,61.531783340741,1.1352859833582
0.084375,1.2402515033816,61.60622452042,1.136668672534
0.084765625,1.2417485466122,61.680855463399,1.1380548863341
0.08515625,1.2432494049702,61.755676880447,1.1394446379608
0.085546875,1.2447540927423,61.830689485838,1.1408379406817
0.0859375,1.2462626242853,61.905893997355,1.1422348078296
0.086328125,1.2477750140266,61.981291136317,1.1436352528029
0.08671875,1.2492912764649,62.056881627605,1.1450392890661
0.087109375,1.2508114261701,62.132666199675,1.1464469301502
0.0875,1.2523354777842,62.208645584585,1.1478581896531
0.087890625,1.2538634460215,62.284820518012,1.14927308124
0.08828125,1.255395345669,62.361191739282,1.1506916186437
0.088671875,1.2569311915871,62.437759991385,1.1521138156653
0.0890625,1.2584709987097,62.514526020991,1.153539686174
0.089453125,1.2600147820451,62.591490578509,1.1549692441085
0.08984375,1.2615625566759,62.668654418047,1.1564025034765
0.090234375,1.2631143377598,62.74601829749,1.1578394783556
0.090625,1.2646701405301,62.823582978492,1.1592801828933
0.091015625,1.2662299802958,62.901349226516,1.1607246313082
0.09140625,1.2677938724425,62.979317810848,1.1621728378896
0.091796875,1.2693618324327,63.057489504623,1.1636248169985
0.0921875,1.2709338758061,63.135865084848,1.1650805830677
0.092578125,1.2725100181803,63.214445332427,1.1665401506025
0.09296875,1.2740902752512,63.293231032185,1.168003534181
0.093359375,1.2756746627936,63.37222297289,1.1694707484544
0.09375,1.2772631966612,63.45142194728,1.1709418081479
0.094140625,1.2788558927879,63.530828752086,1.1724167280606
0.09453125,1.2804527671876,63.610444188058,1.1738955230665
0.094921875,1.2820538359549,63.690269059987,1.1753782081145
0.0953125,1.2836591152658,63.770304176733,1.1768647982292
0.095703125,1.285268621378,63.850550351248,1.1783553085112
0.09609375,1.2868823706314,63.931008400605,1.1798497541375
0.096484375,1.2885003794487,64.01167914602,1.1813481503621
0.096875,1.2901226643358,64.092563412879,1.1828505125167
0.097265625,1.2917492418827,64.173662030767,1.1843568560107
0.09765625,1.2933801287632,64.254975833486,1.1858671963321
0.098046875,1.2950153417364,64.336505659088,1.1873815490475
0.0984375,1.2966548976467,64.418252349905,1.1888999298034
0.098828125,1.2982988134242,64.500216752568,1.1904223543259
0.09921875,1.2999471060856,64.582399718036,1.1919488384215
0.099609375,1.3015997927346,64.664802101625,1.1934793979777
0.1,1.3032568905625,64.747424763036,1.1950140489636
0.100390625,1.3049184168485,64.83026856638,1.1965528074299
0.10078125,1.3065843889606,64.913334380207,1.19809568951
0.101171875,1.3082548243559,64.996623077539,1.1996427114203
0.1015625,1.3099297405815,65.080135535886,1.2011938894606
0.101953125,1.3116091552745,65.163872637286,1.2027492400148
0.10234375,1.3132930861631,65.247835268329,1.2043087795511
0.102734375,1.3149815510669,65.332024320185,1.2058725246233
0.103125,1.3166745678977,65.416440688637,1.2074404918705
0.103515625,1.3183721546599,65.501085274106,1.209012698018
0.10390625,1.3200743294509,65.585958981681,1.210589159878
0.104296875,1.3217811104623,65.671062721155,1.2121698943498
0.1046875,1.3234925159798,65.756397407045,1.2137549184207
0.105078125,1.3252085643844,65.841963958631,1.2153442491663
0.10546875,1.3269292741525,65.92776329998,1.2169379037512
0.105859375,1.3286546638569,66.01379635998,1.2185358994297
0.10625,1.3303847521673,66.100064072371,1.2201382535459
0.106640625,1.3321195578506,66.186567375775,1.2217449835349
0.10703125,1.3338590997722,66.273307213728,1.2233561069229
0.107421875,1.3356033968959,66.36028453471,1.224971641328
0.1078125,1.3373524682851,66.447500292181,1.2265916044608
0.108203125,1.3391063331031,66.534955444608,1.2282160141249
0.10859375,1.340865010614,66.622650955501,1.2298448882175
0.108984375,1.3426285201829,66.710587793443,1.2314782447303
0.109375,1.3443968812773,66.798766932124,1.2331161017495
0.109765625,1.3461701134668,66.887189350376,1.2347584774572
0.11015625,1.3479482364249,66.975856032205,1.2364053901313
0.110546875,1.3497312699284,67.064767966818,1.2380568581464
0.1109375,1.3515192338593,67.153926148669,1.2397128999746
0.111328125,1.3533121482045,67.243331577487,1.2413735341861
0.11171875,1.3551100330572,67.332985258307,1.2430387794495
0.112109375,1.356912908617,67.422888201509,1.2447086545326
0.1125,1.3587207951912,67.513041422855,1.2463831783035
0.112890625,1.3605337131949,67.603445943517,1.2480623697305
0.11328125,1.3623516831521,67.69410279012,1.2497462478834
0.113671875,1.3641747256964,67.785012994771,1.2514348319336
0.1140625,1.3660028615715,67.8761775951,1.2531281411552
0.114453125,1.367836111632,67.967597634294,1.2548261949258
0.11484375,1.3696744968443,68.059274161134,1.2565290127264
0.115234375,1.3715180382872,68.151208230036,1.2582366141431
0.115625,1.3733667571525,68.243400901076,1.2599490188669
0.116015625,1.375220674746,68.335853240041,1.2616662466951
0.11640625,1.3770798124882,68.428566318461,1.2633883175314
0.116796875,1.3789441919149,68.521541213644,1.265115251387
0.1171875,1.380813834678,68.614779008724,1.2668470683814
0.117578125,1.3826887625466,68.708280792684,1.2685837887426
0.11796875,1.3845689974072,68.802047660411,1.2703254328084
0.118359375,1.3864545612649,68.896080712722,1.2720720210265
0.11875,1.3883454762442,68.990381056419,1.2738235739562
0.119140625,1.3902417645896,69.084949804312,1.275580112268
0.11953125,1.3921434486664,69.179788075267,1.277341656745
0.119921875,1.3940505509616,69.274896994247,1.2791082282839
0.1203125,1.3959630940847,69.370277692355,1.2808798478949
0.120703125,1.3978811007686,69.465931306867,1.2826565367033
0.12109375,1.3998045938701,69.561858981279,1.2844383159497
0.121484375,1.4017335963714,69.658061865355,1.2862252069913
0.121875,1.40366813138,69.754541115152,1.288017231302
0.122265625,1.4056082221303,69.851297893081,1.289814410474
0.12265625,1.4075538919842,69.948333367934,1.2916167662178
0.123046875,1.4095051644321,70.04564871494,1.2934243203636
0.1234375,1.4114620630932,70.143245115802,1.2952370948618
0.123828125,1.4134246117173,70.241123758738,1.2970551117838
0.12421875,1.4153928341848,70.339285838532,1.298878393323
0.124609375,1.4173667545082,70.437732556576,1.3007069617957
0.125,1.4193463968326,70.536465120908,1.3025408396414
0.125390625,1.4213317854368,70.63548474627,1.3043800494243
0.12578125,1.4233229447343,70.734792654146,1.3062246138338
0.126171875,1.4253198992739,70.834390072803,1.3080745556852
0.1265625,1.4273226737409,70.93427823735,1.3099298979211
0.126953125,1.4293312929579,71.034458389772,1.3117906636116
0.12734375,1.4313457818857,71.134931778987,1.3136568759559
0.127734375,1.4333661656246,71.235699660885,1.3155285582823
0.128125,1.4353924694146,71.336763298383,1.31740573405
0.128515625,1.4374247186372,71.438123961467,1.3192884268494
0.12890625,1.4394629388159,71.539782927247,1.321176660403
0.129296875,1.4415071556172,71.641741479998,1.3230704585667
0.1296875,1.4435573948519,71.744000911223,1.3249698453307
0.130078125,1.4456136824753,71.84656251968,1.3268748448197
0.13046875,1.4476760445894,71.949427611456,1.3287854812947
0.130859375,1.4497445074428,72.052597500004,1.3307017791534
0.13125,1.4518190974323,72.156073506198,1.3326237629317
0.131640625,1.4538998411039,72.259856958382,1.3345514573039
0.13203125,1.4559867651536,72.363949192429,1.3364848870843
