time,amplitude,fluxintegral,power
9.76563e-05,1,49.577536043725,0.91322487678576
0.0001953126,1.0000022969948,49.577840453301,0.91323079297926
0.0002929689,1.0000091245588,49.578504369793,0.91324337679962
0.0003906252,1.0000203872542,49.579403273989,0.91326033313183
0.0004882815,1.0000359935752,49.580525356646,0.91328144518539
0.0005859378,1.0000558564608,49.581861213638,0.91330653790962
0.0006835941,1.0000798925222,49.583403487953,0.9133354719858
0.0007812504,1.0001080212179,49.585146203255,0.91336813318864
0.0008789067,1.0001401642767,49.587084269053,0.91340442410457
0.000976563,1.0001762453485,49.58921316381,0.91344425856878
0.0010742193,1.0002161898004,49.591528749268,0.91348755818337
0.0011718756,1.0002599245942,49.59402715591,0.91353425006207
0.0012695319,1.0003073782071,49.596704711913,0.91358426536714
0.0013671882,1.0003584805736,49.599557897455,0.91363753834095
0.0014648445,1.0004131630397,49.602583314563,0.91369400565837
0.0015625008,1.0004713583246,49.605777666856,0.91375360599074
0.0016601571,1.0005330004862,49.609137745718,0.91381627970952
0.0017578134,1.0005980248895,49.612660420751,0.91388196868351
0.0018554697,1.0006663681778,49.616342633056,0.91395061613775
0.001953126,1.0007379682454,49.620181390426,0.9140221665537
0.0020507823,1.0008127642108,49.624173763774,0.914096565596
0.0021484386,1.000890696392,49.628316884416,0.91417376005775
0.0022460949,1.0009717062817,49.6326079419,0.91425369781725
0.0023437512,1.0010557365238,49.63704418222,0.91433632780309
0.0024414075,1.0011427308901,49.641622906288,0.9144215999644
0.0025390638,1.0012326342582,49.64634146856,0.91450946524473
0.0026367201,1.0013253925888,49.6511972758,0.91459987555849
0.0027343764,1.0014209529046,49.656187785938,0.91469278376946
0.0028320327,1.0015192632691,49.661310506959,0.91478814366998
0.002929689,1.001620272766,49.666562995881,0.91488590996181
0.0030273453,1.0017239314786,49.671942857735,0.91498603823713
0.0031250016,1.0018301904706,49.677447744602,0.91508848496067
0.0032226579,1.0019390017661,49.683075354662,0.91519320745196
0.0033203142,1.0020503183308,49.688823431277,0.91530016386832
0.0034179705,1.0021640940536,49.694689762085,0.9154093131881
0.0035156268,1.0022802837278,49.700672178129,0.91552061519443
0.0036132831,1.0023988430337,49.706768552984,0.91563403045911
0.0037109394,1.0025197285206,49.71297680192,0.91574952032701
0.0038085957,1.00264289759,49.719294881079,0.91586704690088
0.003906252,1.0027683084785,49.725720786662,0.91598657302619
0.0040039083,1.0028959202416,49.732252554138,0.91610806227657
0.0041015646,1.0030256927368,49.738888257466,0.91623147893928
0.0041992209,1.0031575866086,49.745626008337,0.9163567880012
0.0042968772,1.0032915632725,49.752463955427,0.91648395513501
0.0043945335,1.0034275848997,49.75940028367,0.91661294668562
0.0044921898,1.0035656144026,49.766433213536,0.91674372965691
0.0045898461,1.0037056154195,49.773561000333,0.91687627169865
0.0046875024,1.003847552301,49.780781933517,0.91701054109385
0.0047851587,1.0039913900953,49.788094336026,0.91714650674624
0.004882815,1.0041370945348,49.795496563606,0.91728413816798
0.0049804713,1.0042846320226,49.802987004176,0.91742340546768
0.0050781276,1.004433969619,49.810564077187,0.91756427933867
0.0051757839,1.004585075029,49.818226233003,0.91770673104744
0.0052734402,1.004737916589,49.825971952291,0.91785073242235
0.0053710965,1.0048924632549,49.833799745422,0.91799625584254
0.0054687528,1.0050486845895,49.84170815189,0.91814327422713
0.0055664091,1.0052065507506,49.849695739733,0.91829176102452
0.0056640654,1.0053660324796,49.857761104975,0.91844169020199
0.0057617217,1.0055271010896,49.865902871072,0.9185930362355
0.005859378,1.0056897284544,49.874119688377,0.91874577409969
0.0059570343,1.0058538869974,49.882410233603,0.91889987925799
0.0060546906,1.0060195496805,49.890773209313,0.91905532765312
0.0061523469,1.006186689994,49.899207343403,0.91921209569756
0.0062500032,1.006355281946,49.907711388611,0.91937016026434
0.0063476595,1.0065253000521,49.916284122023,0.91952949867803
0.0064453158,1.0066967193253,49.924924344599,0.91969008870582
0.0065429721,1.0068695152667,49.933630880699,0.91985190854877
0.0066406284,1.0070436638554,49.942402577627,0.92001493683339
0.0067382847,1.0072191415395,49.951238305178,0.92017915260323
0.006835941,1.0073959252266,49.960136955195,0.92034453531063
0.0069335973,1.0075739922748,49.969097441141,0.92051106480879
0.0070312536,1.007753320484,49.978118697668,0.92067872134386
0.0071289099,1.0079338880873,49.987199680211,0.92084748554726
0.0072265662,1.0081156737421,49.996339364568,0.92101733842805
0.0073242225,1.0082986565222,50.005536746509,0.92118826136559
0.0074218788,1.0084828159093,50.01479084138,0.92136023610219
0.0075195351,1.0086681317853,50.024100683719,0.92153324473609
0.0076171914,1.0088545844242,50.033465326886,0.92170726971444
0.0077148477,1.0090421544845,50.042883842683,0.92188229382638
0.007812504,1.0092308230017,50.052355321003,0.92205830019652
0.0079101603,1.0094205713809,50.06187886947,0.9222352722782
0.0080078166,1.0096113813894,50.071453613094,0.92241319384715
0.0081054729,1.00980323515,50.081078693928,0.9225920489951
0.0082031292,1.0099961151334,50.090753270737,0.92277182212367
0.0083007855,1.0101900041521,50.100476518666,0.9229524979382
0.0083984418,1.0103848853532,50.110247628927,0.92313406144192
0.0084960981,1.010580742212,50.120065808479,0.92331649793007
0.0085937544,1.0107775585256,50.129930279719,0.92349979298413
0.0086914107,1.0109753184067,50.139840280186,0.92368393246634
0.008789067,1.0111740062772,50.14979506226,0.92386890251414
0.0088867233,1.0113736068623,50.159793892873,0.92405468953478
0.0089843796,1.0115741051846,50.169836053224,0.92424128020006
0.0090820359,1.0117754865581,50.179920838501,0.92442866144114
0.0091796922,1.0119777365828,50.19004755761,0.92461682044358
0.0092773485,1.0121808411388,50.200215532898,0.92480574464215
0.0093750048,1.012384786381,50.210424099907,0.92499542171626
0.0094726611,1.0125895587338,50.220672607098,0.9251858395849
0.0095703174,1.0127951448855,50.23096041561,0.92537698640211
0.0096679737,1.0130015317837,50.241286899012,0.92556885055242
0.00976563,1.0132087066297,50.251651443053,0.92576142064624
0.0098632863,1.0134166568739,50.262053445437,0.92595468551559
0.0099609426,1.0136253702107,50.272492315578,0.92614863420964
0.0100585989,1.0138348345739,50.282967474375,0.92634325599053
0.0101562552,1.0140450381319,50.29347835399,0.92653854032924
0.0102539115,1.0142559692835,50.304024397632,0.92673447690156
0.0103515678,1.0144676166528,50.314605059331,0.92693105558398
0.0104492241,1.0146799690853,50.325219803742,0.92712826644995
0.0105468804,1.0148930156433,50.335868105922,0.92732609976579
0.0106445367,1.015106745602,50.346549451136,0.92752454598716
0.010742193,1.0153211484447,50.357263334662,0.92772359575533
0.0108398493,1.0155362138598,50.36800926159,0.92792323989352
0.0109375056,1.0157519317358,50.378786746631,0.92812346940335
0.0110351619,1.0159682921578,50.389595313931,0.92832427546137
0.0111328182,1.0161852854038,50.400434496893,0.92852564941579
0.0112304745,1.0164029019409,50.411303837986,0.92872758278294
0.0113281308,1.0166211324214,50.422202888578,0.92893006724415
0.0114257871,1.0168399676793,50.433131208756,0.92913309464239
0.0115234434,1.017059398727,50.444088367166,0.92933665697937
0.0116210997,1.0172794167516,50.455073940841,0.92954074641227
0.011718756,1.0175000131114,50.46608751503,0.92974535525069
0.0118164123,1.017721179333,50.477128683056,0.92995047595385
0.0119140686,1.0179429071074,50.488197046143,0.93015610112755
0.0120117249,1.0181651882876,50.499292213273,0.93036222352141
0.0121093812,1.0183880148845,50.510413801034,0.93056883602604
0.0122070375,1.0186113790649,50.521561433465,0.93077593167032
0.0123046938,1.0188352731476,50.532734741922,0.93098350361866
0.0124023501,1.0190596896008,50.543933364927,0.93119154516847
0.0125000064,1.0192846210393,50.555156948035,0.9314000497475
0.0125976627,1.0195100602215,50.566405143694,0.93160901091135
0.012695319,1.0197360000466,50.577677611118,0.93181842234104
0.0127929753,1.0199624335519,50.588974016145,0.93202827784043
0.0128906316,1.0201893539104,50.600294031116,0.93223857133399
0.0129882879,1.0204167544277,50.611637334753,0.93244929686448
0.0130859442,1.0206446285396,50.623003612025,0.9326604485905
0.0131836005,1.0208729698099,50.634392554031,0.93287202078429
0.0132812568,1.0211017719273,50.645803857889,0.93308400782974
0.0133789131,1.0213310287037,50.657237226609,0.93329640421998
0.0134765694,1.0215607340712,50.668692368982,0.93350920455532
0.0135742257,1.0217908820802,50.680168999475,0.93372240354133
0.013671882,1.0220214668969,50.691666838112,0.9339359959866
0.0137695383,1.0222524828009,50.70318561037,0.93414997680088
0.0138671946,1.0224839241835,50.714725047074,0.93436434099303
0.0139648509,1.0227157855452,50.726284884298,0.93457908366927
0.0140625072,1.0229480614934,50.737864863257,0.93479420003111
0.0141601635,1.0231807467409,50.749464730202,0.93500968537353
0.0142578198,1.0234138361033,50.761084236346,0.93522553508341
0.0143554761,1.0236473244974,50.772723137743,0.93544174463746
0.0144531324,1.023881206939,50.784381195205,0.93565830960057
0.0145507887,1.0241154785411,50.796058174214,0.93587522562431
0.014648445,1.0243501345122,50.807753844824,0.93609248844491
0.0147461013,1.0245851701541,50.819467981579,0.93631009388195
0.0148437576,1.0248205808602,50.831200363423,0.93652803783655
0.0149414139,1.025056362114,50.842950773617,0.93674631628989
0.0150390702,1.0252925094871,50.854718999655,0.93696492530164
0.0151367265,1.0255290186375,50.866504833182,0.93718386100844
0.0152343828,1.0257658853081,50.878308069916,0.93740311962247
0.0153320391,1.026003105325,50.890128509567,0.93762269742988
0.0154296954,1.0262406745957,50.901965955762,0.93784259078953
0.0155273517,1.026478589108,50.913820215969,0.93806279613145
0.015625008,1.0267168449278,50.925691101422,0.93828330995548
0.0157226643,1.0269554381982,50.937578427052,0.93850412883009
0.0158203206,1.0271943651378,50.949482011411,0.93872524939083
0.0159179769,1.027433622039,50.961401676607,0.93894666833919
0.0160156332,1.027673205267,50.973337248233,0.93916838244133
0.0161132895,1.0279131112582,50.985288555302,0.93939038852676
0.0162109458,1.0281533365186,50.997255430176,0.93961268348713
0.0163086021,1.0283938776229,51.009237708509,0.93983526427514
0.0164062584,1.028634731213,51.021235229179,0.94005812790325
0.0165039147,1.0288758939967,51.033247834232,0.94028127144266
0.016601571,1.0291173627461,51.04527536881,0.94050469202199
0.0166992273,1.0293591342971,51.0573176811,0.94072838682633
0.0167968836,1.0296012055476,51.06937462228,0.94095235309621
0.0168945399,1.0298435734563,51.081446046449,0.94117658812634
0.0169921962,1.030086235042,51.093531810577,0.94140108926468
0.0170898525,1.030329187382,51.105631774459,0.94162585391151
0.0171875088,1.0305724276111,51.117745800642,0.94185087951823
0.0172851651,1.0308159529206,51.129873754388,0.94207616358651
0.0173828214,1.0310597605571,51.142015503618,0.94230170366738
0.0174804777,1.0313038478216,51.154170918858,0.94252749736013
0.017578134,1.0315482120682,51.166339873193,0.94275354231151
0.0176757903,1.0317928507032,51.178522242209,0.94297983621467
0.0177734466,1.0320377611843,51.190717903961,0.94320637680851
0.0178711029,1.0322829410194,51.202926738913,0.94343316187663
0.0179687592,1.0325283877656,51.215148629896,0.94366018924652
0.0180664155,1.0327740990284,51.227383462063,0.94388745678868
0.0181640718,1.0330200724607,51.239631122844,0.94411496241589
0.0182617281,1.033266305762,51.251891501903,0.94434270408232
0.0183593844,1.0335127966773,51.264164491095,0.94457067978279
0.0184570407,1.0337595429964,51.276449984426,0.94479888755197
0.018554697,1.0340065425531,51.288747878007,0.9450273254636
0.0186523533,1.0342537932241,51.301058070019,0.94525599162979
0.0187500096,1.0345012929285,51.313380460672,0.94548488420029
0.0188476659,1.0347490396266,51.325714952164,0.94571400136167
0.0189453222,1.0349970313195,51.338061448646,0.94594334133676
0.0190429785,1.0352452660483,51.350419856185,0.94617290238388
0.0191406348,1.0354937418929,51.362790082724,0.94640268279619
0.0192382911,1.0357424569718,51.37517203805,0.94663268090098
0.0193359474,1.0359914094411,51.387565633757,0.94686289505906
0.0194336037,1.0362405974936,51.39997078321,0.94709332366415
0.01953126,1.0364900193587,51.412387401516,0.94732396514219
0.0196289163,1.0367396733009,51.424815405488,0.94755481795077
0.0197265726,1.0369895576198,51.437254713612,0.94778588057853
0.0198242289,1.0372396706492,51.449705246013,0.94801715154449
0.0199218852,1.0374900107563,51.462166924431,0.94824862939761
0.0200195415,1.0377405763413,51.474639672185,0.94848031271613
0.0201171978,1.0379913658365,51.487123414141,0.94871220010697
0.0202148541,1.0382423777062,51.499618076688,0.94894429020533
0.0203125104,1.0384936104453,51.512123587707,0.94917658167403
0.0204101667,1.0387450625794,51.524639876542,0.94940907320301
0.020507823,1.0389967326642,51.537166873972,0.94964176350888
0.0206054793,1.0392486192843,51.549704512183,0.94987465133431
0.0207031356,1.0395007210534,51.562252724745,0.95010773544759
0.0208007919,1.0397530366131,51.574811446583,0.9503410146422
0.0208984482,1.040005564633,51.587380613951,0.95057448773624
0.0209961045,1.0402583038097,51.599960164407,0.95080815357198
0.0210937608,1.0405112528665,51.61255003679,0.95104201101547
0.0211914171,1.0407644105527,51.625150171195,0.95127605895601
0.0212890734,1.0410177756434,51.637760508951,0.95151029630581
0.0213867297,1.0412713469387,51.650380992584,0.95174472199927
0.021484386,1.0415251232635,51.663011565818,0.95197933499302
0.0215820423,1.0417791034669,51.675652173539,0.9522141342652
0.0216796986,1.0420332864219,51.688302761769,0.95244911881505
0.0217773549,1.0422876710243,51.70096327765,0.95268428766258
0.0218750112,1.0425422561935,51.713633669429,0.95291963984825
0.0219726675,1.0427970408706,51.726313886423,0.9531551744324
0.0220703238,1.0430520240193,51.73900387901,0.95339089049506
0.0221679801,1.0433072046245,51.751703598607,0.95362678713544
0.0222656364,1.0435625816925,51.764412997646,0.95386286347168
0.0223632927,1.0438181542502,51.777132029558,0.95409911864038
0.022460949,1.0440739213452,51.789860648756,0.95433555179633
0.0225586053,1.0443298820448,51.80259881061,0.95457216211217
0.0226562616,1.0445860354361,51.815346471438,0.95480894877799
0.0227539179,1.0448423806253,51.828103588482,0.95504591100109
0.0228515742,1.0450989167378,51.84087011989,0.95528304800558
0.0229492305,1.0453556429172,51.853646024704,0.95552035903207
0.0230468868,1.0456125583255,51.866431262836,0.95575784333741
0.0231445431,1.0458696621425,51.879225795062,0.95599550019437
0.0232421994,1.0461269535654,51.892029582993,0.95623332889128
0.0233398557,1.0463844318089,51.904842589072,0.95647132873185
0.023437512,1.0466420961043,51.917664776544,0.95670949903469
0.0235351683,1.0468999456994,51.930496109459,0.95694783913332
0.0236328246,1.0471579798584,51.94333655264,0.95718634837559
0.0237304809,1.0474161978614,51.95618607168,0.95742502612366
0.0238281372,1.0476745990041,51.969044632917,0.95766387175349
0.0239257935,1.0479331825976,51.981912203432,0.95790288465479
0.0240234498,1.0481919479678,51.994788751029,0.9581420642307
0.0241211061,1.0484508944557,52.007674244217,0.95838140989745
0.0242187624,1.0487100214167,52.020568652206,0.95862092108423
0.0243164187,1.0489693282202,52.033471944886,0.95886059723288
0.024414075,1.0492288142499,52.046384092821,0.9591004377977
0.0245117313,1.0494884789029,52.059305067231,0.95934044224517
0.0246093876,1.0497483215899,52.072234839981,0.95958061005376
0.0247070439,1.0500083417347,52.08517338357,0.95982094071366
0.0248047002,1.050268538774,52.09812067112,0.96006143372662
0.0249023565,1.0505289121574,52.111076676363,0.9603020886057
0.0250000128,1.0507894613468,52.124041373628,0.96054290487506
0.0250976691,1.0510501858164,52.137014737834,0.96078388206974
0.0251953254,1.0513110850522,52.149996744477,0.96102501973553
0.0252929817,1.0515721585522,52.162987369615,0.96126631742864
0.025390638,1.0518334058259,52.175986589863,0.96150777471559
0.0254882943,1.0520948263941,52.188994382385,0.96174939117308
0.0255859506,1.0523564197887,52.202010724876,0.96199116638767
0.0256836069,1.0526181855527,52.215035595558,0.96223309995567
0.0257812632,1.0528801232396,52.228068973162,0.96247519148286
0.0258789195,1.0531422324134,52.241110836931,0.9627174405845
0.0259765758,1.0534045126487,52.254161166605,0.96295984688506
0.0260742321,1.0536669635299,52.267219942407,0.96320241001798
0.0261718884,1.0539295846516,52.280287145039,0.96344512962558
0.0262695447,1.054192375618,52.293362755674,0.96368800535888
0.026367201,1.0544553360429,52.306446755943,0.96393103687743
0.0264648573,1.0547184655496,52.31953912793,0.96417422384919
0.0265625136,1.0549817637706,52.332639854161,0.9644175659503
0.0266601699,1.0552452303472,52.3457489176,0.964661062865
0.0267578262,1.05550886493,52.358866301635,0.96490471428542
0.0268554825,1.055772667178,52.371991990077,0.96514851991154
0.0269531388,1.0560366367589,52.385125967143,0.96539247945084
0.0270507951,1.0563007733488,52.39826821746,0.96563659261842
0.0271484514,1.0565650766319,52.411418726047,0.96588085913666
0.0272461077,1.0568295463007,52.424577478314,0.96612527873519
0.027343764,1.0570941820556,52.437744460055,0.9663698511507
0.0274414203,1.0573589836047,52.450919657435,0.96661457612685
0.0275390766,1.0576239506637,52.464103056986,0.96685945341407
0.0276367329,1.0578890829561,52.477294645609,0.96710448276962
0.0277343892,1.0581543802126,52.490494410553,0.9673496639572
0.0278320455,1.0584198421709,52.503702339416,0.96759499674702
0.0279297018,1.0586854685763,52.516918420138,0.96784048091563
0.0280273581,1.0589512591806,52.530142640995,0.96808611624577
0.0281250144,1.0592172137428,52.543374990591,0.96833190252631
0.0282226707,1.0594833320284,52.556615457856,0.96857783955212
0.028320327,1.0597496138096,52.569864032033,0.96882392712393
0.0284179833,1.060016058865,52.58312070268,0.96907016504825
0.0285156396,1.0602826669796,52.596385459659,0.96931655313727
0.0286132959,1.0605494379448,52.609658293132,0.96956309120874
0.0287109522,1.0608163715578,52.622939193558,0.96980977908589
0.0288086085,1.0610834676221,52.636228151682,0.97005661659728
0.0289062648,1.0613507259469,52.649525158534,0.97030360357676
0.0290039211,1.0616181463473,52.662830205425,0.97055073986334
0.0291015774,1.0618857286442,52.676143283937,0.97079802530113
0.0291992337,1.0621534726638,52.689464385921,0.97104545973919
0.02929689,1.062421378238,52.702793503494,0.9712930430315
0.0293945463,1.0626894452041,52.716130629029,0.9715407750368
0.0294922026,1.0629576734045,52.729475755155,0.97178865561859
0.0295898589,1.063226062687,52.742828874751,0.97203668464499
0.0296875152,1.0634946129044,52.756189980941,0.97228486198866
0.0297851715,1.0637633239144,52.769559067088,0.97253318752672
0.0298828278,1.0640321955799,52.782936126794,0.9727816611407
0.0299804841,1.0643012277684,52.796321153892,0.97303028271639
0.0300781404,1.0645704203521,52.80971414244,0.97327905214382
0.0301757967,1.0648397732079,52.823115086725,0.97352796931719
0.030273453,1.0651092862174,52.836523981249,0.97377703413475
0.0303711093,1.0653789592666,52.849940820733,0.97402624649878
0.0304687656,1.0656487922458,52.863365600109,0.97427560631545
0.0305664219,1.0659187850497,52.876798314515,0.97452511349481
0.0306640782,1.0661889375773,52.890238959295,0.97477476795069
0.0307617345,1.0664592497317,52.903687529994,0.97502456960065
0.0308593908,1.0667297214201,52.917144022354,0.97527451836589
0.0309570471,1.0670003525537,52.930608432309,0.97552461417123
0.0310547034,1.0672711430478,52.944080755982,0.97577485694493
0.0311523597,1.0675420928213,52.957560989684,0.97602524661877
0.031250016,1.0678132017972,52.971049129913,0.97627578312797
0.0313476723,1.0680844699019,52.984545173342,0.97652646641101
0.0314453286,1.0683558970659,52.99804911682,0.97677729640969
0.0315429849,1.068627483223,53.011560957374,0.97702827306899
0.0316406412,1.0688992283105,53.025080692198,0.97727939633711
