time,amplitude,fluxintegral,power
0.000195313,1,49.578296045353,0.91323925376194
0.000390626,1.0000091125803,49.579413670979,0.91326055833522
0.000585939,1.0000359682363,49.58185874625,0.91330651316586
0.000781252,1.00007986312,49.585137847757,0.9133679851605
0.000976565,1.0001401363015,49.589203632051,0.91344407947493
0.001171878,1.0002161647019,49.594018297706,0.91353408054171
0.001367191,1.0003073558543,49.599550126617,0.91363738955431
0.001562504,1.0004131430083,49.605770872303,0.9137534768576
0.001757817,1.000532982435,49.612654373794,0.91388185477352
0.00195313,1.0006663518898,49.620175890395,0.91402206367352
0.002148443,1.0008127495592,49.62831179162,0.91417366522079
0.002343756,1.0009716931957,49.63703941048,0.91433623916172
0.002539069,1.0011427193318,49.646336968406,0.91450938174767
0.002734382,1.0013253825382,49.656183529833,0.91469270484204
0.002929695,1.0015192547159,49.666558968114,0.91488583528506
0.003125008,1.0017239244166,49.677443935329,0.91508841434134
0.003320321,1.0019389961912,49.688819833369,0.91530009717062
0.003515634,1.0021640899622,49.700668785649,0.91552055230734
0.003710947,1.0023988404221,49.712973609457,0.91574946115016
0.00390626,1.0026428964544,49.725717789079,0.91598651746445
0.004101573,1.0028959205777,49.738885449812,0.91623142690094
0.004296886,1.003157588412,49.752461332914,0.91648390653138
0.004492199,1.0034275881659,49.766430771533,0.91674368440216
0.004687512,1.0037056201436,49.780779667556,0.91701049910513
0.004882825,1.0039913962723,49.795494469369,0.91728409936525
0.005078138,1.0042846396474,49.810562150516,0.91756424364482
0.005273451,1.0045850840965,49.825970189167,0.91785069976285
0.005468764,1.0048924737596,49.841706548442,0.91814324453021
0.005664077,1.005206562687,49.857759657472,0.91844166339846
0.00585939,1.0055271144523,49.874118393225,0.9187457501229
0.006054703,1.0058539017808,49.890772063046,0.9190553064388
0.006250016,1.0061867061927,49.90771038789,0.91937014175057
0.006445329,1.0065253176605,49.924923486205,0.91969007283291
0.006640642,1.0068695342792,49.942401858448,0.92001492354366
0.006835955,1.0072191619505,49.96013637224,0.92034452454859
0.007031268,1.0075740140787,49.978118248056,0.92067871305609
0.007226581,1.0079339112787,49.996339045521,0.92101733256306
0.007421894,1.0082986810955,50.014790650218,0.92136023261026
0.007617207,1.0086681577352,50.033465261031,0.92170726854776
0.00781252,1.0090421818055,50.052355377969,0.92205830130901
0.008007833,1.0094206000678,50.071453790485,0.92241319719437
0.008203146,1.0098032651974,50.090753566244,0.92277182766282
0.008398459,1.010190035555,50.110248040328,0.92313406913179
0.008593772,1.0105807749652,50.129930804872,0.92349980278501
0.008789085,1.0109753525053,50.149795699103,0.92386891438779
0.008984398,1.0113736423014,50.16983679977,0.92424129410962
0.009179711,1.0117755233328,50.190048411945,0.92461683635358
0.009375024,1.0121808792444,50.210425060191,0.92499543959257
0.009570337,1.0125895981656,50.230961480066,0.92537700621179
0.00976565,1.0130015725374,50.251652609975,0.92576144235766
0.009960963,1.0134166989449,50.272493583318,0.92614865779221
0.010156276,1.0138348779579,50.293479720965,0.92653856575364
0.010351589,1.0142560139764,50.314606524019,0.92693108282198
0.010546902,1.0146800150829,50.335869666851,0.92732612879011
0.010742215,1.0151067929003,50.357264990425,0.92772362653985
0.010937528,1.0155362624551,50.378788495866,0.92812350192283
0.011132841,1.0159683420462,50.400436338294,0.92852568364603
0.011328154,1.0164029531188,50.422204820884,0.92893010316176
0.011523467,1.0168400201432,50.444090389172,0.92933669456199
0.01171878,1.017279470498,50.466089625566,0.92974539447666
0.011914093,1.0177212343587,50.488199244094,0.93015614197618
0.012109406,1.0181652445893,50.510416085325,0.93056887847739
0.012304719,1.0186114366397,50.532737111516,0.9309835476535
0.012500032,1.0190597484456,50.555159401936,0.93140009534738
0.012695345,1.0195101203334,50.577680148372,0.93181846948826
0.012890658,1.0199624949283,50.600296650807,0.93223862001158
0.013085971,1.0204168170658,50.623006313266,0.93266049878197
0.013281284,1.0208730337072,50.645806639833,0.93308405951943
0.013476597,1.0213310938579,50.668695230817,0.93350925772818
0.01367191,1.021790948489,50.691669779055,0.9339360506281
0.013867223,1.022252550462,50.714728066376,0.93436439708928
0.014062536,1.0227158544565,50.737867960196,0.93479425756873
0.014257849,1.0231808169005,50.761087410234,0.93522559404963
0.014453162,1.0236473959033,50.784384445376,0.93565836998306
0.014648475,1.0241155511916,50.807757170641,0.93609255023186
0.014843788,1.0245852440474,50.831203764279,0.93652810101669
0.015039101,1.0250564372486,50.854722474965,0.93696498986414
0.015234414,1.0255290950119,50.878311619122,0.93740318555697
0.015429727,1.0260031829377,50.901969578327,0.9378426580861
0.01562504,1.0264786679577,50.925694796832,0.93828337860458
0.015820353,1.0269555182838,50.949485779176,0.93872531938336
0.016015666,1.0274337033593,50.973341087882,0.93916845376858
0.016210979,1.0279131938121,50.997259341261,0.93961275614078
0.016406292,1.0283939614096,51.021239211271,0.94005820187536
0.016601605,1.0288759790152,51.045279421497,0.94050476730491
0.016796918,1.0293592205468,51.069378745171,0.94095242968272
0.016992231,1.0298436609364,51.093536003298,0.94140116714781
0.017187544,1.0303292760918,51.117750062833,0.94185095869134
0.017382857,1.0308160428597,51.142019834943,0.94230178412423
0.01757817,1.0313039389894,51.166344273321,0.94275362404597
0.017773483,1.0317929430994,51.190722372588,0.94320645981494
0.017968796,1.0322830346437,51.215153166728,0.94366027351947
0.018164109,1.0327741938805,51.239635727603,0.94411504795019
0.018359422,1.0332664018419,51.264169163515,0.94457076657353
0.018554735,1.0337596403039,51.288752617835,0.9450274135061
0.018750048,1.0342538917592,51.313385267669,0.94548497349011
0.018945361,1.0347491393893,51.338066322587,0.94594343186973
0.019140674,1.0352453670388,51.362795023393,0.94640277456831
0.019335987,1.0357425591903,51.387570640953,0.94686298806662
0.0195313,1.0362407009403,51.412392475048,0.94732405938164
0.019726613,1.0367397779761,51.437259853298,0.94778597604651
0.019921926,1.0372397765533,51.462172130104,0.94824872609101
0.020117239,1.0377406834746,51.487128685639,0.94871229802278
0.020312552,1.0382424860693,51.512128924884,0.94917668080955
0.020507865,1.038745172173,51.537172276687,0.94964186386152
0.020703178,1.0392487301088,51.56225819287,0.95010783701496
0.020898491,1.0397531486693,51.587386147363,0.95057459051607
0.021093804,1.0402584170982,51.612555635377,0.95104211500569
0.021289117,1.0407645250743,51.637766172603,0.95151040150438
0.02148443,1.0412714626941,51.663017294444,0.95197944139824
0.021679743,1.0417792204573,51.68830855528,0.95244922642531
0.021875056,1.0422877892504,51.713639527742,0.95291974866199
0.022070369,1.0427971603333,51.739009802054,0.95339100051094
0.022265682,1.0433073253249,51.764418985351,0.95386297468845
0.022460995,1.0438182761894,51.789866701063,0.95433566421291
0.022656308,1.0443300052239,51.815352588296,0.95480906239339
0.022851621,1.0448425050454,51.840876301249,0.95528316281889
0.023046934,1.0453557685795,51.866437508657,0.95575795934792
0.023242247,1.0458697890482,51.89203589324,0.95623344609833
0.02343756,1.0463845599594,51.917671151188,0.95670961743775
0.023632873,1.0469000750959,51.943342991657,0.95718646797421
0.023828186,1.0474163285053,51.969051136289,0.95766399254733
0.024023499,1.0479333144903,51.994795318743,0.95814218621953
0.024218812,1.0484510275987,52.020575284253,0.95862104426789
0.024414125,1.0489694626148,52.046390789195,0.95910056217607
0.024609438,1.0494886145507,52.072241600688,0.95958073562697
0.024804751,1.0500084786372,52.098127496166,0.96006156049479
0.025000064,1.0505290503163,52.124048263025,0.9605430328384
0.025195377,1.0510503252332,52.150003698238,0.96102514889429
0.02539069,1.0515722992286,52.17599360801,0.96150790507017
0.025586003,1.0520949683318,52.202017807427,0.96199129793843
0.025781316,1.0526183287533,52.228076120144,0.96247532423029
0.025976629,1.0531423768787,52.254168378052,0.9629599808298
0.026171942,1.0536671092617,52.280294420985,0.96344526476826
0.026367255,1.0541925226181,52.306454096426,0.96393117321877
0.026562568,1.0547186138198,52.332647259222,0.96441770349104
0.026757881,1.0552453798894,52.358873771318,0.96490485302641
0.026953194,1.055772817994,52.385133501495,0.96539261939295
0.027148507,1.0563009254405,52.41142632512,0.96588100028085
0.02734382,1.0568296996702,52.437752123904,0.96636999349798
0.027539133,1.0573591382539,52.46411078567,0.96685959696555
0.027734446,1.057889238887,52.490502204127,0.96734980871389
0.027929759,1.0584199993854,52.516926278666,0.96784062687874
0.028125072,1.0589514176808,52.543382914138,0.96833204969705
0.028320385,1.0594834918164,52.569872020668,0.96882407550356
0.028515698,1.0600162199428,52.596393513451,0.9693167027271
0.028711011,1.0605496003146,52.622947312579,0.96980992988725
0.028906324,1.061083631286,52.64953334286,0.97030375559105
0.029101637,1.0616183113075,52.676151533645,0.9707981785298
0.02929695,1.0621536389224,52.702801818663,0.971293197476
0.029492263,1.0626896127633,52.729484135864,0.97178881128042
0.029687576,1.063226231549,52.756198427278,0.97228501886942
0.029882889,1.0637634940816,52.782944638844,0.972781819242
0.030078202,1.0643013992429,52.809722720291,0.97327921146728
0.030273515,1.0648399459921,52.836532624992,0.97377719468206
0.030468828,1.0653791333627,52.863374309833,0.97427576808828
0.030664141,1.0659189604601,52.890247735095,0.97477493095079
0.030859454,1.0664594264586,52.917152864324,0.97527468259502
0.031054767,1.0670005305996,52.944089664218,0.97577502240485
0.03125008,1.0675422721885,52.971058104516,0.97627594982058
0.031445393,1.0680846505928,52.998058157889,0.97677746433681
0.031640706,1.06862766524,53.025089799835,0.97727956550066
0.031836019,1.069171315615,53.05215300858,0.97778225290976
0.032031332,1.0697156012586,53.079247764982,0.9782855262106
0.032226645,1.0702605217652,53.106374052436,0.97878938509672
0.032421958,1.0708060767811,53.133531856788,0.97929382930707
0.032617271,1.0713522660023,53.160721166249,0.97979885862449
0.032812584,1.0718990891734,53.187941971307,0.98030447287407
0.033007897,1.0724465460852,53.215194264652,0.98081067192169
0.03320321,1.0729946365736,53.242478041101,0.98131745567269
0.033398523,1.0735433605178,53.269793297517,0.98182482407039
0.033593836,1.0740927178386,53.297140032743,0.9823327770948
0.033789149,1.0746427084976,53.324518247543,0.98284131476153
0.033984462,1.0751933324951,53.351927944512,0.9833504371202
0.034179775,1.0757445898691,53.379369128035,0.98386014425359
0.034375088,1.0762964806938,53.406841804214,0.98437043627635
0.034570401,1.0768490050788,53.434345980814,0.98488131333395
0.034765714,1.0774021631673,53.461881667203,0.9853927756016
0.034961027,1.0779559551353,53.489448874306,0.98590482328337
0.03515634,1.0785103811906,53.517047614539,0.98641745661102
0.035351653,1.0790654415713,53.544677901769,0.98693067584317
0.035546966,1.0796211365451,53.57233975126,0.98744448126441
0.035742279,1.0801774664084,53.600033179632,0.98795887318441
0.035937592,1.0807344314849,53.627758204808,0.98847385193706
0.036132905,1.0812920321251,53.655514845975,0.98898941787969
0.036328218,1.0818502687052,53.683303123545,0.98950557139231
0.036523531,1.0824091416264,53.711123059109,0.99002231287682
0.036718844,1.0829686513137,53.738974675394,0.99053964275622
0.036914157,1.0835287982159,53.766857996252,0.99105756147432
0.03710947,1.0840895828039,53.794773046581,0.99157606949436
0.037304783,1.0846510055706,53.822719852334,0.99209516729914
0.037500096,1.0852130670298,53.85069844045,0.99261485538978
0.037695409,1.0857757677159,53.878708838844,0.99313513428545
0.037890722,1.0863391081829,53.906751076369,0.99365600452276
0.038086035,1.0869030890042,53.934825182788,0.99417746665517
0.038281348,1.0874677107713,53.962931188742,0.99469952125243
0.038476661,1.088032974094,53.991069125725,0.99522216890014
0.038671974,1.0885988795991,54.019239026057,0.9957454101992
0.038867287,1.0891654279307,54.047440922859,0.99626924576536
0.0390626,1.0897326197488,54.075674850028,0.99679367622877
0.039257913,1.0903004557293,54.103940842213,0.99731870223351
0.039453226,1.0908689365635,54.13223893479,0.99784432443719
0.039648539,1.0914380629576,54.160569163844,0.99837054351056
0.039843852,1.0920078356319,54.188931566147,0.99889736013707
0.040039165,1.092578255321,54.217326179135,0.99942477501252
0.040234478,1.0931493227728,54.24575304089,0.99995278884472
0.040429791,1.0937210387486,54.274212190121,1.0004814023531
0.040625104,1.0942934040223,54.302703666149,1.0010106162683
0.040820417,1.0948664193802,54.331227508882,1.0015404313321
0.04101573,1.0954400856206,54.359783758806,1.0020708482968
0.041211043,1.0960144035537,54.388372456966,1.0026018679253
0.041406356,1.0965893740007,54.41699364494,1.00313349099
0.041601669,1.0971649977942,54.445647364846,1.0036657182737
0.041796982,1.0977412757773,54.47433365931,1.0041985505684
0.041992295,1.0983182088036,54.50305257146,1.0047319886756
0.042187608,1.098895797737,54.531804144902,1.0052660334054
0.042382921,1.099474043451,54.560588423724,1.0058006855772
0.042578234,1.1000529468289,54.589405452469,1.0063359460184
0.042773547,1.1006325087633,54.618255276128,1.0068718155651
0.04296886,1.1012127301559,54.647137940134,1.0074082950615
0.043164173,1.1017936119175,54.676053490339,1.0079453853594
0.043359486,1.102375154967,54.705001973011,1.0084830873185
0.043554799,1.1029573602324,54.733983434834,1.0090214018061
0.043750112,1.1035402286496,54.762997922871,1.0095603296967
0.043945425,1.1041237611623,54.792045484578,1.0100998718719
0.044140738,1.1047079587225,54.821126167787,1.0106400292204
0.044336051,1.1052928222895,54.850240020697,1.0111808026377
0.044531364,1.1058783528301,54.879387091862,1.0117221930258
0.044726677,1.1064645513184,54.908567430192,1.0122642012934
0.04492199,1.1070514187359,54.937781084939,1.0128068283555
0.045117303,1.1076389560706,54.967028105687,1.0133500751332
0.045312616,1.1082271643175,54.996308542349,1.0138939425539
0.045507929,1.1088160444784,55.025622445161,1.0144384315508
0.045703242,1.1094055975614,55.054969864671,1.014983543063
0.045898555,1.1099958245811,55.084350851736,1.0155292780353
0.046093868,1.1105867265582,55.113765457514,1.0160756374179
0.046289181,1.1111783045197,55.143213733455,1.0166226221669
0.046484494,1.1117705594984,55.172695731306,1.0171702332434
0.046679807,1.1123634925332,55.202211503091,1.0177184716138
0.04687512,1.1129571046685,55.231761101116,1.01826733825
0.047070433,1.1135513969545,55.26134457796,1.0188168341286
0.047265746,1.114146370447,55.290961986471,1.0193669602314
0.047461059,1.114742026207,55.32061337976,1.019917717545
0.047656372,1.1153383653011,55.350298811199,1.0204691070608
0.047851685,1.115935388801,55.380018334413,1.0210211297751
0.048046998,1.1165330977838,55.409772003279,1.0215737866887
0.048242311,1.1171314933313,55.439559871922,1.0221270788069
0.048437624,1.1177305765306,55.469381994706,1.0226810071398
0.048632937,1.1183303484736,55.499238426243,1.0232355727017
0.04882825,1.118930810257,55.529129221361,1.0237907765112
0.049023563,1.1195319629823,55.559054435141,1.0243466195915
0.049218876,1.1201338077559,55.589014122885,1.0249031029698
0.049414189,1.1207363456884,55.619008340117,1.0254602276776
0.049609502,1.1213395778953,55.649037142588,1.0260179947504
0.049804815,1.1219435054964,55.679100586267,1.026576405228
0.050000128,1.1225481296163,55.709198727341,1.0271354601541
0.050195441,1.1231534513835,55.739331622211,1.0276951605764
0.050390754,1.1237594719311,55.769499327484,1.0282555075463
0.050586067,1.1243661923964,55.799701899982,1.0288165021194
0.05078138,1.1249736139211,55.829939396735,1.0293781453551
0.050976693,1.1255817376507,55.860211874971,1.0299404383164
0.051172006,1.1261905647352,55.890519392125,1.0305033820701
0.051367319,1.1268000963285,55.920862005833,1.031066977687
0.051562632,1.1274103335886,55.951239773924,1.0316312262412
0.051757945,1.1280212776775,55.981652754427,1.0321961288105
0.051953258,1.1286329297611,56.012101005563,1.0327616864766
0.052148571,1.1292452910093,56.042584585747,1.0333279003245
0.052343884,1.1298583625958,56.073103553586,1.0338947714428
0.052539197,1.1304721456983,56.103657967874,1.0344623009236
0.05273451,1.1310866414981,56.134247887593,1.0350304898626
0.052929823,1.1317018511805,56.164873371913,1.0355993393588
0.053125136,1.1323177759345,56.195534480187,1.0361688505148
0.053320449,1.1329344169527,56.226231271952,1.0367390244364
0.053515762,1.1335517754316,56.25696380693,1.0373098622331
0.053711075,1.1341698525713,56.28773214502,1.0378813650174
0.053906388,1.1347886495755,56.318536346303,1.0384535339053
0.054101701,1.1354081676515,56.349376471037,1.0390263700162
0.054297014,1.1360284080104,56.380252579662,1.0395998744727
0.054492327,1.1366493718667,56.411164732789,1.0401740484008
0.05468764,1.1372710604385,56.442112991209,1.0407488929295
0.054882953,1.1378934749474,56.473097415886,1.0413244091913
0.055078266,1.1385166166188,56.50411806796,1.0419005983219
0.055273579,1.1391404866812,56.535175008742,1.0424774614602
0.055468892,1.1397650863669,56.566268299717,1.0430549997481
0.055664205,1.1403904169116,56.597398002543,1.0436332143311
0.055859518,1.1410164795543,56.628564179044,1.0442121063575
0.056054831,1.1416432755377,56.659766891221,1.044791676979
0.056250144,1.1422708061078,56.691006201241,1.0453719273502
0.056445457,1.142899072514,56.722282171441,1.0459528586292
0.05664077,1.1435280760091,56.753594864326,1.046534471977
0.056836083,1.1441578178495,56.784944342571,1.0471167685576
0.057031396,1.1447882992947,56.816330669019,1.0476997495386
0.057226709,1.1454195216078,56.847753906678,1.0482834160901
0.057422022,1.1460514860551,56.879214118724,1.0488677693857
0.057617335,1.1466841939065,56.910711368502,1.0494528106021
0.057812648,1.1473176464349,56.942245719518,1.0500385409188
0.058007961,1.1479518449169,56.97381723545,1.0506249615186
0.058203274,1.1485867906323,57.005425980139,1.0512120735874
0.058398587,1.1492224848642,57.03707201759,1.0517998783141
0.0585939,1.149858928899,57.068755411974,1.0523883768907
0.058789213,1.1504961240266,57.10047622763,1.0529775705122
0.058984526,1.15113407154,57.132234529056,1.0535674603766
0.059179839,1.1517727727357,57.164030380919,1.0541580476852
0.059375152,1.1524122289133,57.195863848049,1.0547493336422
0.059570465,1.153052441376,57.227734995441,1.0553413194548
0.059765778,1.1536934114302,57.259643888255,1.0559340063333
0.059961091,1.1543351403853,57.29159059181,1.0565273954911
0.060156404,1.1549776295545,57.323575171596,1.0571214881446
0.060351717,1.155620880254,57.355597693263,1.0577162855133
0.06054703,1.1562648938032,57.387658222626,1.0583117888196
0.060742343,1.1569096715252,57.419756825663,1.0589079992891
0.060937656,1.157555214746,57.451893568517,1.0595049181504
0.061132969,1.158201524795,57.484068517496,1.0601025466351
0.061328282,1.1588486030052,57.51628173907,1.0607008859779
0.061523595,1.1594964507124,57.548533299873,1.0612999374165
0.061718908,1.1601450692562,57.580823266707,1.0618997021918
0.061914221,1.160794459979,57.613151706532,1.0625001815474
0.062109534,1.1614446242269,57.645518686477,1.0631013767304
0.062304847,1.1620955633492,57.677924273833,1.0637032889907
0.06250016,1.1627472786984,57.710368536058,1.0643059195811
0.062695473,1.1633997716304,57.742851540771,1.0649092697579
0.062890786,1.1640530435044,57.775373355761,1.06551334078
0.063086099,1.1647070956829,57.807934048978,1.0661181339097
0.063281412,1.1653619295318,57.840533688536,1.0667236504122
0.063476725,1.1660175464201,57.873172342719,1.0673298915559
0.063672038,1.1666739477204,57.905850079973,1.067936858612
0.063867351,1.1673311348085,57.938566968911,1.0685445528551
0.064062664,1.1679891090634,57.971323078308,1.0691529755627
0.064257977,1.1686478718677,58.004118477117,1.0697621280155
0.06445329,1.1693074246073,58.036953234443,1.0703720114972
0.064648603,1.1699677686711,58.069827419565,1.0709826272946
