time,amplitude,fluxintegral,power
6.25e-05,1.0030785053768,49.642761759235,0.91498999191886
0.000125,1.0092352271522,49.711919191786,0.91633551258766
0.0001875,1.0153896722526,49.763063254325,0.91732550698609
0.00025,1.0215274707426,49.800045455304,0.91806207255124
0.0003125,1.0276409245772,49.826904695423,0.91861643766146
0.000375,1.0337257016219,49.846473875608,0.91903708086961
0.0004375,1.0397792818173,49.860709265839,0.91935781811865
0.0005,1.0458001652688,49.870986106032,0.91960284782567
0.0005625,1.0517874491799,49.878290013311,0.91978986773694
0.000625,1.0577405933471,49.883339692145,0.91993205688552
0.0006875,1.0636592857608,49.886667174307,0.92003937461009
0.00075,1.0695433630325,49.888671433044,0.9201194364338
0.0008125,1.0753927617219,49.889654954929,0.92017812035797
0.000875,1.0812074875714,49.889849180625,0.92021999671716
0.0009375,1.0869875954196,49.889432531496,0.92024863949453
0.001,1.092733175673,49.888543402159,0.9202668559708
0.0010625,1.0984443449277,49.88728967057,0.92027685877715
0.001125,1.1041212392978,49.885755755444,0.92028039645823
0.0011875,1.1097640095624,49.884007916977,0.92027885358736
0.00125,1.1153728175672,49.882098279643,0.92027332818011
0.0013125,1.1153728175664,49.881919699364,0.92027474332373
0.001375,1.1264890978491,49.878270769909,0.92025717394078
0.0014375,1.1319970627978,49.875905942471,0.92024290678631
0.0015,1.1374717844433,49.873634529721,0.92022792734565
0.0015625,1.1429134437817,49.87135859322,0.9202120924001
0.001625,1.148322228933,49.869076863253,0.92019557560857
0.0016875,1.1483222289323,49.868477599314,0.92018763530953
0.00175,1.1590418098938,49.864810362161,0.92016432424405
0.0018125,1.1643531140547,49.86238046794,0.92014548142791
0.001875,1.164353114054,49.861696129586,0.92013582215081
0.0019375,1.1748794685435,49.858114021381,0.92011197747316
0.002,1.1748794685428,49.857290644564,0.9201011605224
0.0020625,1.1852789084064,49.853762961404,0.9200771799301
0.002125,1.1852789084058,49.852931615772,0.92006606839626
0.0021875,1.1955529549215,49.849482999934,0.92004232118688
0.00225,1.1955529549209,49.848657700582,0.920031171571
0.0023125,1.2057031105383,49.845294390679,0.92000782701461
0.002375,1.2057031105377,49.844481922431,0.91999677644807
0.0024375,1.2157308638438,49.841205776464,0.91997392176178
0.0025,1.2157308638432,49.84040969276,0.91996304682417
0.0025625,1.2256376884485,49.837220377934,0.91994072512993
0.002625,1.225637688448,49.836442476866,0.91993006830916
0.0026875,1.2354250421481,49.833338496353,0.91990829752209
0.00275,1.2354250421476,49.832579573839,0.91989788120479
0.0028125,1.2450943664224,49.829558809637,0.91987666441667
0.002875,1.2450943664219,49.828819074786,0.91986649885715
0.0029375,1.2546470861785,49.825879091599,0.91984583038322
0.003,1.254647086178,49.825158407185,0.91983591845107
0.0030625,1.2640846096548,49.822296628369,0.91981578747189
0.003125,1.2640846096543,49.821594654435,0.91980612755568
0.0031875,1.27340832843,49.81880846553,0.91978652035099
0.00325,1.2734083284295,49.818124746786,0.91977710816063
0.0033125,1.278027941606,49.816576156928,0.91976434284093
0.003375,1.287183475691,49.8138023126,0.91974488479475
0.0034375,1.2871834756906,49.813124646035,0.91973558620597
0.0035,1.2962286662049,49.810506522315,0.91971706863193
0.0035625,1.2962286662044,49.809859847738,0.91970814485163
0.003625,1.3051647925347,49.807313902947,0.91969017449609
0.0036875,1.3051647925342,49.806686763485,0.9196815255141
0.00375,1.3139931720355,49.804207410452,0.9196640419286
0.0038125,1.3139931720351,49.803597525823,0.91965563374744
0.003875,1.3227151070608,49.801181446464,0.9196386045159
0.0039375,1.3227151070604,49.800587567395,0.91963041864608
0.004,1.3313318842597,49.798232143282,0.91961382128083
0.0040625,1.3313318842593,49.797653421785,0.9196058453632
0.004125,1.3398447746898,49.79535637571,0.91958966180351
0.0041875,1.3398447746894,49.794792149236,0.91958188629153
0.00425,1.3482550340079,49.792551404804,0.91956610081052
0.0043125,1.3482550340075,49.792001108251,0.9195585176424
0.004375,1.356563902667,49.789814728085,0.91954311595653
0.0044375,1.3565639026666,49.789277854757,0.91953571796669
0.0045,1.3647726061085,49.787144010174,0.91952068681253
0.0045625,1.3647726061081,49.786620092991,0.91951346744332
0.004625,1.3688397749265,49.785432103927,0.91950366883893
0.0046875,1.37690045432,49.783300003715,0.91948870370616
0.00475,1.3769004543196,49.782779074543,0.91948155130141
0.0048125,1.384864012389,49.780761683423,0.91946727659346
0.004875,1.3848640123887,49.780263466712,0.91946039810836
0.0049375,1.3927315785331,49.778296992885,0.9194465134012
0.005,1.3927315785327,49.777812737993,0.91943983229272
0.0050625,1.4005043123504,49.775893193488,0.91942629276189
0.005125,1.4005043123501,49.775421201671,0.91941978341485
0.0051875,1.4081833601491,49.773546330394,0.91940656587464
0.00525,1.4081833601488,49.773085699673,0.91940021473255
0.0053125,1.4157698543924,49.771253770047,0.91938730365413
0.005375,1.4157698543921,49.770803908439,0.91938110194535
0.0054375,1.4232649138096,49.769013436705,0.91936848517892
0.0055,1.4232649138093,49.768573894372,0.91936242632152
0.0055625,1.4306696435687,49.766823536197,0.91935009345683
0.005625,1.4306696435684,49.766393936589,0.91934417200955
0.0056875,1.4379851354518,49.764682439634,0.91933211367398
0.00575,1.4379851354515,49.764262449841,0.91932632488665
0.0058125,1.4452124680263,49.762588630596,0.91931453240764
0.005875,1.445212468026,49.762177943233,0.91930887192665
0.0059375,1.4523526742312,49.76054288882,0.91929737813881
0.006,1.455890527904,49.759446359445,0.919288076428
0.0060625,1.4558905279037,49.759106276645,0.91928295986464
0.006125,1.4629020961967,49.757533977555,0.91927194461553
0.0061875,1.4629020961964,49.757151108319,0.91926667820852
0.00625,1.4698291752339,49.755604328406,0.91925581619015
0.0063125,1.4698291752337,49.755226623434,0.91925061810543
0.006375,1.4766727899644,49.753710917206,0.91923995823177
0.0064375,1.4766727899641,49.753340081474,0.91923485176712
0.0065,1.4834339491126,49.751855552479,0.91922440344569
0.0065625,1.4834339491124,49.751492007424,0.91921939565845
0.006625,1.490113649085,49.750038185863,0.91920915932884
0.0066875,1.4901136490847,49.749682000084,0.91920425178867
0.00675,1.4967128742731,49.748258219732,0.91919422457023
0.0068125,1.4967128742728,49.747909320472,0.91918941664481
0.006875,1.5032325972086,49.746514846966,0.91917959433218
0.0069375,1.5032325972084,49.746173101581,0.91917488443522
0.007,1.5096737786973,49.744807183815,0.91916526229238
0.0070625,1.5096737786971,49.744472434158,0.91916064840739
0.007125,1.5160373679521,49.743134326194,0.91915122151349
0.0071875,1.5160373679519,49.742806404143,0.91914670143394
0.00725,1.522324302727,49.741495374913,0.91913746484597
0.0073125,1.5223243027268,49.741174109779,0.91913303629426
0.007375,1.5285354825312,49.739891185127,0.91912401730102
0.0074375,1.5316130280347,49.739029995917,0.91911671167519
0.0075,1.5316130280345,49.738763309303,0.91911269813229
0.0075625,1.5377123556908,49.737526455873,0.91910403198333
0.007625,1.5377123556905,49.737225645262,0.91909989340353
0.0076875,1.5437382200361,49.736006855886,0.91909133349077
0.00775,1.5437382200359,49.735709609185,0.91908724172935
0.0078125,1.5496915120887,49.734513371553,0.91907882741427
0.007875,1.5496915120885,49.734221061397,0.91907480125605
0.0079375,1.5555731089319,49.733047574534,0.91906654079724
0.008,1.5555731089317,49.73276056259,0.91906258622315
0.0080625,1.5613838769462,49.731609567717,0.9190544807688
0.008125,1.561383876946,49.731327936049,0.91905059941013
0.0081875,1.5671246720656,49.730199013347,0.91904264744367
0.00825,1.5671246720654,49.729922730926,0.91903883917008
0.0083125,1.5727963399114,49.728815400906,0.91903103808507
0.008375,1.5727963399112,49.728544387884,0.91902730199011
0.0084375,1.5783997159083,49.727458152257,0.91901964871957
0.0085,1.5783997159081,49.727192307201,0.91901598353595
0.0085625,1.5839356254008,49.726126666516,0.9190084748283
0.008625,1.5839356254006,49.72586587876,0.91900487911926
0.0086875,1.5894048837693,49.72482034038,0.91899751166959
0.00875,1.5894048837691,49.724564495986,0.91899398392443
0.0088125,1.5948082965471,49.723538577791,0.91898675444103
0.008875,1.594808296547,49.723287562547,0.91898329312582
0.0089375,1.6001466595374,49.72228079463,0.91897619836537
0.009,1.6001466595372,49.722034495628,0.91897280195095
0.0090625,1.6054207589283,49.721046420976,0.9189658387374
0.009125,1.6054207589281,49.72080472745,0.91896250571534
0.0091875,1.6106313714088,49.719834902125,0.91895567094967
0.00925,1.6106313714086,49.719597705881,0.91895239984118
0.0093125,1.6157792642823,49.718645698914,0.91894569050613
0.009375,1.6157792642821,49.718412894548,0.918942479867
0.0094375,1.6208651747984,49.717479552521,0.91893591645219
0.0095,1.6233851807017,49.716852405103,0.91893059461776
0.0095625,1.6233851807011,49.716658704651,0.91892767752718
0.009625,1.6283795712318,49.715756400358,0.91892135357856
0.0096875,1.6283795712312,49.715537451345,0.91891833992688
0.00975,1.6333138533709,49.714646736051,0.91891208235508
0.0098125,1.6333138533703,49.714429999912,0.91890909755322
0.009875,1.6381887560171,49.713554229119,0.91890293562365
0.0099375,1.6381887560166,49.713340726524,0.91889999363467
0.01,1.6430049968152,49.712480129063,0.91889393394352
0.0100625,1.6430049968146,49.712270143735,0.91889103939852
0.010125,1.6477632846567,49.711424610984,0.91888508333882
0.0101875,1.6477632846561,49.711218222133,0.91888223769057
0.01025,1.6524643198843,49.710387524241,0.91887638468898
0.0103125,1.6524643198837,49.710184727797,0.91887358809585
0.010375,1.6571087944006,49.70936858768,0.91886783675999
0.0104375,1.6571087944,49.709169343131,0.91886508880357
0.0105,1.6616973917641,49.708367466416,0.91885943738109
0.0105625,1.6616973917636,49.708171716664,0.91885673736873
0.010625,1.6662307872845,49.707383804713,0.91885118394924
0.0106875,1.666230787284,49.707191485112,0.91884853105373
0.01075,1.6707096481181,49.706417240998,0.91884307366545
0.0108125,1.6707096481176,49.706228283728,0.918840466995
0.010875,1.675134633364,49.705467415105,0.91883510365419
0.0109375,1.6751346333635,49.705281751396,0.91883254228986
0.011,1.6795063941591,49.704533971883,0.91882727102753
0.0110625,1.6816725167613,49.70403293864,0.91882302840878
0.011125,1.6838256088552,49.703561483699,0.91881896982579
0.0111875,1.6838256088547,49.703413741051,0.91881672713084
0.01125,1.6880928416187,49.702699501228,0.91881174306615
0.0113125,1.6880928416182,49.70252767413,0.91880938184616
0.011375,1.6923087549257,49.701820409575,0.91880442358822
0.0114375,1.6923087549252,49.701649282082,0.91880206888981
0.0115,1.6964739712645,49.700952589679,0.9187971721983
0.0115625,1.6985377598588,49.700485809022,0.91879322892465
0.011625,1.7005891363626,49.70004630699,0.91878945238724
0.0116875,1.7005891363622,49.699909058734,0.9187873703846
0.01175,1.7046547881015,49.699242286214,0.91878272239819
0.0118125,1.704654788101,49.699082250099,0.91878052473437
0.011875,1.7086715570599,49.698421622986,0.91877589629181
0.0119375,1.7086715570595,49.698262057294,0.91877370159839
0.012,1.7126400360652,49.69761102302,0.91876912749162
0.0120625,1.7126400360648,49.697453197983,0.91876695412739
0.012125,1.7165608086116,49.696812292862,0.91876244470465
0.0121875,1.7185034853971,49.696382815241,0.91875881349814
0.01225,1.7204344818782,49.69597844983,0.91875533658124
0.0123125,1.7204344818778,49.695852243936,0.91875342128025
0.012375,1.7242615627461,49.695238802777,0.91874914338253
0.0124375,1.7242615627457,49.695091672373,0.91874712229646
0.0125,1.7280426442697,49.694483739941,0.91874286187706
0.0125625,1.7280426442693,49.694337033857,0.91874084351223
0.012625,1.731778284299,49.693737762407,0.91873663221134
0.0126875,1.7317782842986,49.693592631954,0.91873463318645
0.01275,1.7354690319211,49.693002510662,0.91873048037476
0.0128125,1.7372977408722,49.692607009847,0.91872713578906
0.012875,1.7391154443194,49.692235366375,0.9187239474475
0.0129375,1.7409222074909,49.691870272183,0.91872082230728
0.013,1.7409222074905,49.691757184493,0.91871910618523
0.0130625,1.7445030807414,49.691197883038,0.91871521759005
0.013125,1.7462773507791,49.690822121608,0.91871206970025
0.0131875,1.7480409449112,49.690467917266,0.91870905203737
0.01325,1.749793926443,49.690119181193,0.9187060822629
0.0133125,1.7497939264427,49.690012007378,0.91870445837585
0.013375,1.7532682148267,49.689475799781,0.91870074050329
0.0134375,1.7532682148263,49.68934850544,0.91869899704327
0.0135,1.7567007685231,49.688815808289,0.918695275442
0.0135625,1.7584015533622,49.688458854245,0.91869227370906
0.013625,1.7600921070773,49.688122945768,0.91868940434158
0.0136875,1.7617724776324,49.687793255034,0.91868659870976
0.01375,1.7634427392118,49.68746706077,0.91868382657419
0.0138125,1.7634427392114,49.687367206011,0.91868231408396
0.013875,1.7667530918803,49.686864519919,0.91867883210553
0.0139375,1.7683933304323,49.686526827699,0.91867601143692
0.014,1.7700237043545,49.686208266505,0.91867330361602
0.0140625,1.7716442599933,49.68589508412,0.91867064808252
0.014125,1.7732550567435,49.685585539924,0.91866803121487
0.0141875,1.7748561657457,49.685278482884,0.91866543432106
0.01425,1.7764476098761,49.684974989902,0.9186628782649
0.0143125,1.7780294835511,49.684674213756,0.9186603480028
0.014375,1.7796018329012,49.684376032606,0.9186578417229
0.0144375,1.7811647156833,49.684080355514,0.91865535811027
0.0145,1.7827181893,49.683787112423,0.91865289617847
0.0145625,1.7842623108024,49.683496247401,0.91865045516339
0.014625,1.7857971483081,49.683207083641,0.91864802277444
0.0146875,1.7873227239261,49.682920849044,0.91864562196445
0.01475,1.788839127916,49.6826368713,0.91864324053506
0.0148125,1.790346404533,49.682355120754,0.9186408781299
0.014875,1.7918446091091,49.682075569473,0.91863853443375
0.0149375,1.7933337966397,49.681798191492,0.91863620916526
0.015,1.7948140217859,49.681522962439,0.91863390206966
0.0150625,1.7962853388766,49.681249859199,0.91863161291315
0.015125,1.7977478019109,49.680978859671,0.9186293414786
0.0151875,1.7992014752908,49.680709354186,0.91862707666339
0.01525,1.8006463801679,49.6804425045,0.91862484015702
0.0153125,1.8020826017581,49.680177695448,0.9186226207865
0.015375,1.80351018203,49.679914908545,0.9186204183796
0.0154375,1.804929173364,49.679654124833,0.91861823276701
0.0155,1.8063396278226,49.679395325642,0.91861606378435
0.0155625,1.8077415971527,49.679138492635,0.91861391127164
0.015625,1.8091351327874,49.678883607779,0.91861177507286
0.0156875,1.8105202858479,49.678630653324,0.9186096550354
0.01575,1.8118971071454,49.678379611784,0.9186075510097
0.0158125,1.8132656471832,49.678130465913,0.91860546284896
0.015875,1.8146259561583,49.6778831987,0.91860339040884
0.0159375,1.8159780839633,49.677637793354,0.91860133354734
0.016,1.8173220801886,49.677394233293,0.91859929212452
0.0160625,1.8186579941237,49.677152502138,0.91859726600248
0.016125,1.8199858747595,49.676912583704,0.91859525504513
0.0161875,1.8213057707899,49.676674461996,0.91859325911818
0.01625,1.8226177306136,49.676438121204,0.918591278089
0.0163125,1.8239218023358,49.676203545696,0.91858931182661
0.016375,1.8252180337703,49.675970720015,0.91858736020155
0.0164375,1.8265064724411,49.675739628875,0.91858542308591
0.0165,1.8277871655838,49.675510257161,0.91858350035322
0.0165625,1.8290601601481,49.67528258992,0.91858159187843
0.016625,1.8303255027988,49.67505661236,0.9185796975379
0.0166875,1.8315832399179,49.674832309852,0.91857781720933
0.01675,1.8328334176064,49.674609667921,0.91857595077178
0.0168125,1.8340760816857,49.674388672247,0.9185740981056
0.016875,1.8353112776995,49.674169308663,0.91857225909242
0.0169375,1.8365390509156,49.67395156315,0.91857043361516
0.017,1.8365390597946,49.673886515847,0.91856945061266
0.0170625,1.8389724905785,49.673547655986,0.91856712217678
0.017125,1.8401782641543,49.673319752001,0.91856522676202
0.0171875,1.8413767941195,49.673104466369,0.91856340277635
0.01725,1.8425681235683,49.67289254022,0.91856161023164
0.0173125,1.8437522960423,49.672682841198,0.91855984066659
0.017375,1.8449293549106,49.672475075366,0.91855809034057
0.0174375,1.846099343298,49.672269091451,0.91855635703232
0.0175,1.8472623040728,49.672064791563,0.91855463930119
0.0175625,1.848418279844,49.671862107569,0.91855293616724
0.017625,1.8495673129611,49.67166098977,0.91855124693604
0.0176875,1.8507094455158,49.671461400326,0.91854957109574
0.01775,1.8507094537123,49.67140186729,0.91854867023826
0.0178125,1.8529731593364,49.67109136121,0.9185465347862
0.017875,1.8540948400888,49.67088251654,0.91854479640024
0.0179375,1.8552097868758,49.670685233992,0.91854312369241
0.018,1.8563180397682,49.670491026398,0.91854147994334
0.0180625,1.8574196392477,49.670298853039,0.91853985733762
0.018125,1.8585146256342,49.670108442219,0.9185382523999
0.0181875,1.8596030390201,49.669919653596,0.91853666305816
0.01825,1.8596030467938,49.66986327442,0.91853580884992
0.0183125,1.8617602901368,49.669569979782,0.9185337889745
0.018375,1.862829222575,49.669372698474,0.91853214484567
0.0184375,1.8638917407187,49.669186364337,0.91853056337342
0.0185,1.8649478827439,49.669002953961,0.91852900970365
0.0185625,1.8659976872144,49.668821476652,0.91852747632254
0.018625,1.8670411925389,49.668641670101,0.91852595985111
0.0186875,1.8680784369089,49.668463397674,0.91852445826146
0.01875,1.8680784442835,49.668410262874,0.91852365266847
0.0188125,1.8701342793949,49.668133287268,0.91852174461586
0.018875,1.8711529676648,49.667946984908,0.91852019145945
0.0189375,1.8721655461549,49.667771015766,0.91851869748554
0.019,1.8731720512322,49.66759780148,0.9185172297595
0.0190625,1.874172519631,49.66742640583,0.91851578117178
0.019125,1.874172526721,49.667375183985,0.91851500372755
0.0191875,1.8761554780944,49.667109498028,0.91851317044168
0.01925,1.8771380550416,49.666930781967,0.91851167851966
0.0193125,1.8781147410523,49.666762017491,0.91851024416501
0.019375,1.8790855711959,49.666595925219,0.91850883555169
0.0194375,1.8800505808941,49.666431596779,0.91850744568973
0.0195,1.8800505877115,49.6663825431,0.91850670066201
0.0195625,1.8819632659856,49.666127849483,0.91850494250902
0.019625,1.8829110251156,49.665956528278,0.91850351172298
0.0196875,1.8838531043277,49.665794748205,0.9185021362164
0.01975,1.8847895374379,49.665635529501,0.91850078544867
0.0198125,1.8857203586,49.66547800009,0.91849945269489
0.019875,1.8857203651562,49.665431061297,0.91849873944043
0.0199375,1.8875652875991,49.665186880129,0.91849705356863
0.02,1.8884794761403,49.66502263501,0.91849568157961
0.0200625,1.8893881882276,49.664867533937,0.9184943625799
0.020125,1.8902914564678,49.664714884252,0.91849306728023
0.0201875,1.8902914628145,49.664669302969,0.91849237407562
0.02025,1.8920817800748,49.664433285635,0.91849074222993
0.0203125,1.8929689136882,49.66427453121,0.91848941457918
0.020375,1.893850734811,49.664124648892,0.91848813880191
0.0204375,1.8947272750765,49.663977160702,0.91848688638361
0.0205,1.894727281221,49.663933161425,0.91848621684206
0.0205625,1.8964646281818,49.663705174782,0.91848463988252
0.020625,1.8973255169044,49.663551823992,0.91848335690253
0.0206875,1.8981812521979,49.663407046653,0.91848212413463
0.02075,1.8990318647506,49.663264583592,0.91848091400262
0.0208125,1.8990318706999,49.66322215089,0.91848026799828
0.020875,1.900717833359,49.663001919725,0.91847874440452
0.0209375,1.9015532630037,49.662853790207,0.91847750483018
0.021,1.9023836935221,49.662713941147,0.91847631376978
0.0210625,1.9032091546849,49.662576325393,0.91847514457536
0.021125,1.9032091604456,49.662535410545,0.91847452142046
0.0211875,1.904845277346,49.662322647508,0.91847304932256
0.02125,1.9056560102098,49.662179547093,0.91847185163218
0.0213125,1.906461893631,49.662044444148,0.91847070079782
0.021375,1.9072629564902,49.661911495769,0.91846957107004
0.0214375,1.9072629620688,49.661872044562,0.91846896996553
0.0215,1.9088507256993,49.661666469257,0.91846754746669
0.0215625,1.9096375012585,49.661528209803,0.91846639011981
0.021625,1.9104195725779,49.661397675387,0.91846527802764
