time,amplitude,fluxintegral,power
0.0005,1.0245254163504,49.816363980263,0.91844041793257
0.001,1.07232136762,49.871718289064,0.91980712642382
0.0015,1.1179881583548,49.873050392326,0.9201026005751
0.002,1.1615227507597,49.860447890337,0.92008935234884
0.0025,1.2030034421477,49.845020754016,0.91999039874456
0.003,1.2425216037876,49.829911149514,0.91987371811272
0.0035,1.2801685522709,49.81593637864,0.91975980444387
0.004,1.316032526192,49.803219647167,0.91965420488685
0.0045,1.3501979741695,49.791685471162,0.91955778637964
0.005,1.3827454674242,49.781212628165,0.91947003084823
0.0055,1.41375179638,49.771680126014,0.91939008854541
0.006,1.4432901208392,49.762979413585,0.91931710293066
0.0065,1.4714301324107,49.755016152954,0.91925029977331
0.007,1.4982382157818,49.747709019958,0.91918900186446
0.0075,1.5237776045659,49.740987883993,0.91913262199336
0.008,1.5481085305124,49.734792063145,0.91908065103384
0.0085,1.5712883658935,49.729068823465,0.91903264623792
0.009,1.5933717592175,49.723772131223,0.91898822104182
0.0095,1.6144107645301,49.718861624918,0.91894703651664
0.01,1.6344549645855,49.714301768283,0.9189087942746
0.0105,1.6535515881729,49.710061149864,0.91887323058729
0.011,1.6717456218738,49.70611190101,0.91884011149334
0.0115,1.6890799165132,49.702429209753,0.91880922871127
0.012,1.7055952885566,49.698990912699,0.91878039620808
0.0125,1.7213306166935,49.695777150731,0.91875344730488
0.013,1.7363229338342,49.692770077172,0.91872823222378
0.0135,1.7506075147404,49.689953609328,0.91870461599969
0.014,1.7642179594939,49.687313216041,0.91868247669513
0.0145,1.777186273003,49.684835735334,0.91866170386799
0.015,1.7895429407346,49.682509217258,0.91864219725134
0.0155,1.8013170008503,49.680322787979,0.91862386561166
0.016,1.8125361129177,49.678266531828,0.91860662575821
0.0165,1.8232266233601,49.676331388595,0.9185904016804
0.017,1.8334136277981,49.674509063806,0.91857512379436
0.0175,1.8431210304323,49.672791950126,0.91856072828295
0.018,1.8523716006038,49.671173058423,0.9185471565183
0.0185,1.8611870266823,49.669645956481,0.91853435454301
0.019,1.8695879673698,49.668204715669,0.9185222726269
0.0195,1.8775941005951,49.666843863165,0.91851086486429
0.02,1.8852241700734,49.665558339657,0.91850008881909
0.0205,1.8924960296587,49.664343461704,0.91848990520877
0.021,1.8994266855897,49.663194888148,0.91848027762249
0.0215,1.906032336731,49.662108590093,0.91847117226915
0.022,1.9123284129032,49.661080823998,0.91846255775153
0.0225,1.9183296113936,49.660108107524,0.91845440486365
0.023,1.9240499317329,49.659187197801,0.91844668640836
0.0235,1.9295027088219,49.658315071843,0.91843937703304
0.024,1.9347006444848,49.65748890886,0.9184324530811
0.0245,1.9396558375244,49.656706074252,0.91842589245779
0.025,1.9443798123511,49.655964105111,0.91841967450846
0.0255,1.9488835462516,49.655260697054,0.91841377990813
0.026,1.9531774953647,49.654593692255,0.91840819056108
0.0265,1.9572716194219,49.653961068538,0.91840288950935
0.027,1.9611754053151,49.65336092944,0.91839786084937
0.0275,1.9648978895444,49.652791495124,0.91839308965567
0.028,1.9684476796007,49.652251094066,0.9183885619113
0.0285,1.971832974333,49.651738155449,0.91838426444381
0.029,1.9750615833485,49.651251202174,0.91838018486683
0.0295,1.9781409454924,49.650788844447,0.91837631152611
0.03,1.9810781464492,49.65034977388,0.91837263345016
0.0305,1.9838799355098,49.649932758056,0.91836914030458
0.031,1.9865527415414,49.649536635517,0.91836582235008
0.0315,1.9891026881996,49.649160311145,0.91836267040367
0.032,1.9915356084188,49.648802751881,0.91835967580283
0.0325,1.9938570582139,49.648462982777,0.91835683037236
0.033,1.996072329827,49.64814008333,0.91835412639359
0.0335,1.998186361904,49.647838096867,0.9183516475936
0.034,2.0002042631715,49.64754612974,0.91834920063003
0.0345,2.0021303002824,49.64726858953,0.91834687473328
0.035,2.003968932155,49.647004728691,0.91834466365306
0.0355,2.0057243085339,49.646753851296,0.91834256154314
0.036,2.0074003821537,49.646515299409,0.91834056287983
0.0365,2.0090009180921,49.646288450399,0.918338662437
0.037,2.0105295026793,49.646072714797,0.91833685526719
0.0375,2.011989551984,49.645867534352,0.9183351366851
0.038,2.0133843198962,49.64567238023,0.91833350225234
0.0385,2.0147169058274,49.645486751333,0.91833194776332
0.039,2.0159902620438,49.64531017273,0.91833046923206
0.0395,2.0172072006525,49.645142194184,0.91832906287988
0.04,2.0183704002554,49.644982388775,0.91832772512374
0.0405,2.0194823591122,49.64483287787,0.91832649936961
0.041,2.0205456670625,49.64468809923,0.91832528653425
0.0415,2.021562479497,49.644550352882,0.91832413276894
0.042,2.0225350546154,49.644419286297,0.91832303512435
0.0425,2.0234654927586,49.644294570595,0.91832199083493
0.043,2.0243557945538,49.644175893867,0.91832099727952
0.0435,2.0252078656477,49.644062960033,0.91832005197058
0.044,2.0260235212164,49.643955487961,0.91831915254632
0.0445,2.0268044902602,49.643853210658,0.9183182967638
0.045,2.027552384129,49.64375755763,0.91831751367569
0.0455,2.028268878254,49.643664838338,0.91831673739691
0.046,2.0289553601843,49.64357659873,0.91831599878473
0.0465,2.0296132887981,49.643492616868,0.91831529598097
0.047,2.0302440198364,49.643412685635,0.91831462724214
0.0475,2.0308488446761,49.643336608383,0.91831399091404
0.048,2.03142896589,49.643265497012,0.91831340948775
0.0485,2.031985637641,49.643196512049,0.91831283219203
0.049,2.0325198934821,49.643130854071,0.91831228289983
0.0495,2.0330328239704,49.643068359085,0.91831176023699
0.05,2.0335254416983,49.643008874091,0.91831126291419
0.0505,2.033998688815,49.642953309091,0.91831080926022
0.051,2.0344535511631,49.642899363008,0.91831035807104
0.0515,2.0348908367402,49.642848017132,0.91830992879168
0.052,2.0353114014821,49.642799143675,0.91830952035045
0.0525,2.0357160202964,49.642753523077,0.91830914840931
0.053,2.0361055067377,49.642709198417,0.91830877788228
0.0535,2.0364805239404,49.642667010466,0.91830842537968
0.054,2.0368417771804,49.642626854391,0.91830809002155
0.0545,2.0371899036885,49.642589404154,0.91830778527975
0.055,2.0375255752021,49.642552985362,0.91830748109212
0.0555,2.0378493355942,49.642518323327,0.91830719174127
0.056,2.0381617514429,49.642486022943,0.91830692930629
0.0565,2.0384634048395,49.642454587814,0.91830666689111
0.057,2.0387547642588,49.642424670306,0.91830641730854
0.0575,2.0390363193532,49.642396817457,0.91830619144608
0.058,2.0393085747426,49.642369686535,0.91830596514108
0.0585,2.0395719214008,49.642344447331,0.91830576069121
0.059,2.0398268314423,49.64231984615,0.91830555553547
0.0595,2.0400736697256,49.642296435178,0.91830536046942
0.06,2.0403128201949,49.642274682005,0.91830518474511
0.0605,2.0405446810169,49.64225345462,0.91830500794899
0.061,2.0407695554476,49.642233749818,0.91830484903456
0.0615,2.0409878169957,49.642214505158,0.91830468884103
0.062,2.0411997393819,49.642196659187,0.91830454519641
0.0625,2.0414056629173,49.642179213731,0.91830440008267
0.063,2.0416058345237,49.642163054592,0.91830427030826
0.0635,2.0418005643928,49.642147241871,0.91830413889145
0.064,2.0419900751316,49.642132613541,0.91830402171632
0.0645,2.0421746496043,49.64211828255,0.91830390274092
0.065,2.0423544883567,49.642105043497,0.9183037970111
0.0655,2.0425298413165,49.642092439859,0.91830369642577
0.066,2.0427009213808,49.642080069789,0.91830359384408
0.0665,2.0428679081331,49.642068669283,0.91830350319214
0.067,2.0430310191365,49.642057817958,0.9183034169913
0.0675,2.0431904383829,49.64204714411,0.91830332861679
0.068,2.0433463195053,49.642037333977,0.91830325103248
0.0685,2.0434988520964,49.642027998457,0.91830317729838
0.069,2.0436481951679,49.642018791895,0.91830310123582
0.0695,2.0437944799246,49.642010357544,0.91830303497743
0.07,2.0439378717875,49.642002333329,0.91830297204867
0.0705,2.0440785016889,49.641994700801,0.91830291230164
0.071,2.0442165072869,49.641987142828,0.91830285005465
0.0715,2.044351994545,49.641980254273,0.91830279650478
0.072,2.044485101682,49.641973703437,0.91830274570073
0.0725,2.0446159358001,49.641967475138,0.91830269751967
0.073,2.0447446049792,49.641961554396,0.91830265184351
0.0735,2.0448712179919,49.641955653589,0.91830260349543
0.074,2.0449958554307,49.64195031882,0.91830256272972
0.0745,2.0451186281706,49.641945249081,0.91830252412424
0.075,2.0452396193615,49.641940432511,0.918302487582
0.0755,2.0453589137508,49.641935857259,0.91830245300828
0.076,2.0454765920626,49.641931512065,0.91830242031352
0.0765,2.0455927311891,49.641927386166,0.91830238941173
0.077,2.0457074043716,49.641923469288,0.91830236022061
0.0775,2.0458206813748,49.64191975164,0.91830233266156
0.078,2.0459326286508,49.641916223887,0.9183023066596
0.0785,2.0460433094973,49.64191287713,0.91830228214316
0.079,2.0461527842068,49.641909702892,0.918302259044
0.0795,2.0462611102092,49.641906693095,0.91830223729709
0.08,2.0463683422084,49.641903840031,0.91830221684018
0.0805,2.0464745323106,49.641901136357,0.91830219761401
0.081,2.0465797301488,49.641898575078,0.91830217956205
0.0815,2.0466839829995,49.641896149523,0.91830216263033
0.082,2.0467873358946,49.641893853336,0.91830214676741
0.0825,2.0468898317283,49.641891680458,0.91830213192416
0.083,2.0469915113583,49.641889625113,0.91830211805373
0.0835,2.0470924137026,49.641887681797,0.91830210511143
0.084,2.0471925758315,49.641885845264,0.91830209305459
0.0845,2.0472920330556,49.641884110513,0.91830208184255
0.085,2.0473908190089,49.641882472778,0.9183020714365
0.0855,2.0474889657289,49.641880927516,0.91830206179939
0.086,2.0475865037317,49.641879470397,0.91830205289591
0.0865,2.0476834620851,49.641878097293,0.91830204469232
0.087,2.0477798684765,49.641876804271,0.91830203715647
0.0875,2.0478757492793,49.641875587671,0.91830203025942
0.088,2.0479711296144,49.6418744438,0.91830202396961
0.0885,2.0480660334105,49.64187336927,0.91830201825943
0.089,2.0481604834598,49.641872360836,0.9183020131023
0.0895,2.0482545014728,49.641871415403,0.91830200847281
0.09,2.0483481081293,49.641870530019,0.91830200434668
0.0905,2.0484413231271,49.641869701873,0.91830200070076
0.091,2.048534165229,49.641868928281,0.91830199751292
0.0915,2.0486266523072,49.641868206687,0.91830199476211
0.092,2.0487188013849,49.641867534658,0.91830199242821
0.0925,2.0488106286778,49.641866909879,0.91830199049218
0.093,2.0489021496312,49.641866330142,0.91830198893579
0.0935,2.0489933789573,49.641865793344,0.91830198774172
0.094,2.0490843306701,49.641865297473,0.91830198689328
0.0945,2.0491750181182,49.641864840618,0.91830198637474
0.095,2.0492654540166,49.641864420928,0.91830198617039
0.0955,2.0493556504761,49.64186403667,0.91830198626594
0.096,2.049445619033,49.641863686189,0.91830198664767
0.0965,2.0495353706757,49.641863367904,0.91830198730242
0.097,2.0496249158712,49.641863080306,0.91830198821765
0.0975,2.0497142645894,49.64186282196,0.91830198938137
0.098,2.0498034263268,49.641862591495,0.91830199078214
0.0985,2.0498924101293,49.641862387607,0.91830199240909
0.099,2.0499812246132,49.641862209052,0.9183019942518
0.0995,2.0500698779857,49.641862054643,0.91830199630035
0.1,2.0501583780646,49.641861923249,0.91830199854528
0.1005,2.0502467322963,49.641861813795,0.91830200097756
0.101,2.0503349477738,49.641861725252,0.91830200358857
0.1015,2.0504230312534,49.64186165664,0.91830200637007
0.102,2.0505109891705,49.641861607025,0.91830200931421
0.1025,2.0505988276552,49.641861575519,0.91830201241349
0.103,2.0506865525465,49.641861561271,0.91830201566076
0.1035,2.0507741694061,49.641861563471,0.91830201904917
0.104,2.0508616835318,49.64186158135,0.91830202257223
0.1045,2.0509490999698,49.641861614171,0.9183020262237
0.105,2.0510364235267,49.641861661235,0.91830202999766
0.1055,2.051123658781,49.641861721871,0.91830203388845
0.106,2.051210810094,49.641861795445,0.91830203789067
0.1065,2.0512978816195,49.641861881351,0.91830204199919
0.107,2.0513848773146,49.641861979007,0.91830204620908
0.1075,2.0514718009482,49.641862087866,0.91830205051568
0.108,2.0515586561105,49.641862207401,0.91830205491453
0.1085,2.0516454462211,49.641862337112,0.91830205940135
0.109,2.0517321745373,49.64186247652,0.91830206397206
0.1095,2.0518188441618,49.641862625171,0.91830206862281
0.11,2.0519054580501,49.641862782631,0.91830207334989
0.1105,2.0519920190172,49.641862948488,0.91830207814978
0.111,2.0520785297446,49.641863122347,0.9183020830191
0.1115,2.0521649927863,49.641863303833,0.91830208795465
0.112,2.0522514105755,49.641863492587,0.91830209295335
0.1125,2.0523377854293,49.641863688268,0.91830209801226
0.113,2.0524241195554,49.641863890551,0.91830210312863
0.1135,2.0525104150562,49.641864099126,0.91830210829976
0.114,2.0525966739346,49.641864313698,0.91830211352315
0.1145,2.0526828980982,49.641864533983,0.91830211879633
0.115,2.0527690893643,49.641864759715,0.91830212411703
0.1155,2.0528552494637,49.641864990636,0.91830212948301
0.116,2.0529413800452,49.641865226504,0.9183021348922
0.1165,2.0530274826792,49.641865467085,0.91830214034256
0.117,2.0531135588616,49.641865712157,0.91830214583219
0.1175,2.0531996100174,49.641865961511,0.91830215135926
0.118,2.0532856375037,49.641866214942,0.91830215692203
0.1185,2.0533716426135,49.641866472261,0.91830216251884
0.119,2.0534576265781,49.641866733285,0.9183021681481
0.1195,2.0535435905706,49.641866997837,0.9183021738083
0.12,2.0536295357083,49.641867265752,0.91830217949798
0.1205,2.0537154630555,49.641867536872,0.91830218521576
0.121,2.0538013736259,49.641867811044,0.91830219096036
0.1215,2.0538872683852,49.641868088126,0.91830219673048
0.122,2.0539731482533,49.641868367979,0.91830220252493
0.1225,2.0540590141061,49.641868650473,0.91830220834259
0.123,2.0541448667783,49.641868935483,0.91830221418235
0.1235,2.0542307070649,49.641869222891,0.9183022200432
0.124,2.0543165357229,49.641869512584,0.91830222592413
0.1245,2.0544023534739,49.641869804451,0.91830223182419
0.125,2.0544881610047,49.641870098391,0.91830223774248
0.1255,2.0545739589697,49.641870394306,0.91830224367815
0.126,2.0546597479923,49.641870692101,0.91830224963035
0.1265,2.0547455286663,49.641870991688,0.91830225559832
0.127,2.0548313015573,49.641871292983,0.91830226158131
0.1275,2.0549170672041,49.641871595902,0.91830226757861
0.128,2.0550028261198,49.64187190037,0.91830227358952
0.1285,2.0550885787932,49.641872206312,0.9183022796134
0.129,2.0551743256899,49.641872513659,0.91830228564965
0.1295,2.0552600672535,49.641872822343,0.91830229169765
0.13,2.0553458039065,49.641873132301,0.91830229775685
0.1305,2.0554315360512,49.641873443471,0.91830230382669
0.131,2.0555172640711,49.641873755796,0.91830230990669
0.1315,2.0556029883311,49.64187406922,0.91830231599635
0.132,2.0556887091792,49.641874383692,0.91830232209519
0.1325,2.0557744269467,49.64187469916,0.91830232820279
0.133,2.055860141949,49.641875015577,0.9183023343187
0.1335,2.0559458544869,49.641875332896,0.91830234044251
0.134,2.0560315648466,49.641875651076,0.91830234657385
0.1345,2.056117273301,49.641875970073,0.91830235271236
0.135,2.0562029801097,49.641876289849,0.91830235885765
0.1355,2.0562886855204,49.641876610366,0.91830236500943
0.136,2.0563743897687,49.641876931588,0.91830237116734
0.1365,2.0564600930793,49.641877253482,0.91830237733111
0.137,2.0565457956659,49.641877576013,0.91830238350042
0.1375,2.0566314977324,49.641877899151,0.91830238967499
0.138,2.0567171994729,49.641878222866,0.91830239585458
0.1385,2.0568029010722,49.641878547132,0.91830240203892
0.139,2.0568886027064,49.641878871918,0.91830240822777
0.1395,2.0569743045433,49.641879197202,0.9183024144209
0.14,2.0570600067427,49.641879522958,0.91830242061808
0.1405,2.0571457094569,49.641879849162,0.91830242681913
0.141,2.0572314128308,49.641880175793,0.91830243302381
0.1415,2.0573171170025,49.641880502829,0.91830243923196
0.142,2.0574028221036,49.64188083025,0.91830244544338
0.1425,2.0574885282595,49.641881158038,0.9183024516579
0.143,2.0575742355896,49.641881486172,0.91830245787536
0.1435,2.0576599442075,49.641881814636,0.91830246409559
0.144,2.0577456542216,49.641882143412,0.91830247031843
0.1445,2.0578313657351,49.641882472487,0.91830247654378
0.145,2.0579170788464,49.641882801844,0.91830248277147
0.1455,2.058002793649,49.641883131469,0.91830248900138
0.146,2.0580885102322,49.641883461348,0.91830249523337
0.1465,2.058174228681,49.641883791467,0.91830250146734
0.147,2.0582599490763,49.641884121814,0.91830250770316
0.1475,2.0583456714952,49.641884452378,0.91830251394072
0.148,2.0584313960112,49.641884783147,0.91830252017992
0.1485,2.0585171226943,49.641885114109,0.91830252642066
0.149,2.0586028516111,49.641885445256,0.91830253266286
0.1495,2.0586885828252,49.641885776575,0.91830253890641
0.15,2.0587743163971,49.64188610806,0.91830254515124
0.1505,2.0588600523843,49.6418864397,0.91830255139727
0.151,2.0589457908419,49.641886771488,0.91830255764441
0.1515,2.0590315318221,49.641887103415,0.9183025638926
0.152,2.0591172753747,49.641887435471,0.91830257014174
0.1525,2.0592030215472,49.641887767652,0.91830257639178
0.153,2.0592887703848,49.64188809995,0.91830258264266
0.1535,2.0593745219307,49.641888432357,0.91830258889432
0.154,2.0594602762258,49.641888764869,0.91830259514669
0.1545,2.0595460333094,49.641889097478,0.91830260139973
0.155,2.0596317932185,49.641889430178,0.91830260765338
0.1555,2.0597175559888,49.641889762966,0.91830261390758
0.156,2.059803321654,49.641890095833,0.91830262016227
0.1565,2.0598890902464,49.641890428776,0.91830262641743
0.157,2.0599748617967,49.641890761789,0.918302632673
0.1575,2.060060636334,49.64189109487,0.91830263892896
0.158,2.0601464138863,49.641891428013,0.91830264518524
0.1585,2.0602321944802,49.641891761213,0.91830265144181
0.159,2.0603179781408,49.641892094468,0.91830265769865
0.1595,2.0604037648924,49.641892427772,0.91830266395571
0.16,2.0604895547578,49.641892761124,0.91830267021296
0.1605,2.060575347759,49.641893094519,0.91830267647037
0.161,2.0606611439168,49.641893427953,0.9183026827279
0.1615,2.060746943251,49.641893761424,0.91830268898553
0.162,2.0608327457805,49.641894094929,0.91830269524324
0.1625,2.0609185515237,49.641894428465,0.91830270150098
0.163,2.0610043604974,49.641894762028,0.91830270775875
0.1635,2.0610901727182,49.641895095618,0.9183027140165
0.164,2.0611759882015,49.64189542923,0.91830272027423
0.1645,2.0612618069624,49.641895762864,0.91830272653191
0.165,2.0613476290149,49.641896096516,0.91830273278951
0.1655,2.0614334543729,49.641896430185,0.91830273904703
0.166,2.0615192830484,49.641896763867,0.91830274530443
0.1665,2.0616051150542,49.641897097564,0.91830275156171
0.167,2.0616909504024,49.641897431269,0.91830275781884
0.1675,2.0617767891037,49.641897764985,0.91830276407581
0.168,2.0618626311688,49.641898098707,0.91830277033261
0.1685,2.0619484766078,49.641898432436,0.91830277658921
0.169,2.0620343254305,49.641898766168,0.9183027828456
0.1695,2.0621201776459,49.641899099902,0.91830278910177
0.17,2.0622060332629,49.641899433639,0.91830279535771
0.1705,2.0622918922898,49.641899767375,0.91830280161341
0.171,2.0623777547346,49.64190010111,0.91830280786884
0.1715,2.0624636206049,49.641900434842,0.918302814124
0.172,2.0625494899079,49.641900768571,0.91830282037889
0.1725,2.0626353626506,49.641901102296,0.91830282663348
0.173,2.0627212388396,49.641901436014,0.91830283288778
0.1735,2.0628071184811,49.641901769726,0.91830283914176
0.174,2.0628930015811,49.64190210343,0.91830284539544
0.1745,2.0629788881454,49.641902437126,0.91830285164878
0.175,2.0630647781794,49.641902770812,0.91830285790179
0.1755,2.0631506716883,49.641903104488,0.91830286415445
0.176,2.063236568677,49.641903438153,0.91830287040676
0.1765,2.0633224691504,49.641903771806,0.91830287665873
0.177,2.0634083731128,49.641904105447,0.91830288291031
0.1775,2.0634942805687,49.641904439075,0.91830288916154
0.178,2.063580191522,49.641904772689,0.91830289541239
0.1785,2.0636661059769,49.641905106289,0.91830290166286
0.179,2.0637520239369,49.641905439873,0.91830290791294
0.1795,2.0638379454056,49.641905773443,0.91830291416263
0.18,2.0639238703866,49.641906106996,0.91830292041192
0.1805,2.0640097988829,49.641906440532,0.9183029266608
0.181,2.0640957308978,49.641906774051,0.91830293290928
